! AIRS solar data file for AIRS SRF 31 Mar 2008 m140
!     Tef = 156.339 K, yoffset = -14.0 um
! Data for 649-1614 cm-1 comes from M.P. Thekaekara, 1973 Solar
! Energy v.14 p.109-127 (supplied to us by Chris Barnet).  The ~80
! cm-1 point spacing data has been interpolated to the AIRS
! channel freqs and converted to W/(m2.sr.cm-1).
!
! Data for 2181-2665 cm-1 comes from ATMOS Solar Spectra, and was
! supplied to us by ATMOS Principal Investigator Michael Gunson.
! In particular we used the file "atmos_corrected_solar.mat".
! This data was then directly convolved with the estimated AIRS
! SRFs for each channel to approximate the effective AIRS solar.
!
!chan   frequency    solar
!---- ----------- --------
    1   649.6220   15.5012
    2   649.8604   15.5112
    3   650.0990   15.5213
    4   650.3379   15.5312
    5   650.5769   15.5408
    6   650.8160   15.5506
    7   651.0554   15.5608
    8   651.2950   15.5710
    9   651.5347   15.5808
   10   651.7747   15.5905
   11   652.0148   15.6006
   12   652.2551   15.6110
   13   652.4956   15.6212
   14   652.7363   15.6310
   15   652.9772   15.6409
   16   653.2183   15.6512
   17   653.4596   15.6617
   18   653.7010   15.6720
   19   653.9427   15.6819
   20   654.1845   15.6920
   21   654.4265   15.7026
   22   654.6688   15.7131
   23   654.9112   15.7234
   24   655.1538   15.7334
   25   655.3966   15.7438
   26   655.6396   15.7545
   27   655.8827   15.7651
   28   656.1261   15.7754
   29   656.3697   15.7857
   30   656.6134   15.7963
   31   656.8574   15.8071
   32   657.1015   15.8177
   33   657.3459   15.8281
   34   657.5904   15.8387
   35   657.8351   15.8495
   36   658.0800   15.8604
   37   658.3251   15.8710
   38   658.5704   15.8816
   39   658.8159   15.8924
   40   659.0616   15.9034
   41   659.3075   15.9142
   42   659.5536   15.9250
   43   659.7999   15.9358
   44   660.0463   15.9469
   45   660.2930   15.9579
   46   660.5399   15.9689
   47   660.7869   15.9798
   48   661.0342   15.9908
   49   661.2816   16.0020
   50   661.5293   16.0132
   51   661.7771   16.0242
   52   662.0252   16.0354
   53   662.2734   16.0467
   54   662.5218   16.0580
   55   662.7705   16.0692
   56   663.0193   16.0804
   57   663.2683   16.0917
   58   663.5176   16.1032
   59   663.7670   16.1146
   60   664.0166   16.1260
   61   664.2664   16.1374
   62   664.5165   16.1490
   63   664.7667   16.1606
   64   665.0171   16.1721
   65   665.2677   16.1836
   66   665.5185   16.1953
   67   665.7696   16.2070
   68   666.0208   16.2187
   69   666.2722   16.2304
   70   666.5238   16.2421
   71   666.7756   16.2540
   72   667.0277   16.2659
   73   667.2799   16.2777
   74   667.5323   16.2896
   75   667.7849   16.3015
   76   668.0378   16.3135
   77   668.2908   16.3255
   78   668.5440   16.3376
   79   668.7975   16.3496
   80   669.0511   16.3617
   81   669.3049   16.3739
   82   669.5590   16.3861
   83   669.8132   16.3983
   84   670.0677   16.4105
   85   670.3223   16.4228
   86   670.5772   16.4352
   87   670.8322   16.4475
   88   671.0875   16.4598
   89   671.3430   16.4722
   90   671.5986   16.4847
   91   671.8545   16.4972
   92   672.1106   16.5097
   93   672.3669   16.5222
   94   672.6234   16.5348
   95   672.8801   16.5474
   96   673.1370   16.5601
   97   673.3941   16.5727
   98   673.6514   16.5854
   99   673.9089   16.5981
  100   674.1667   16.6109
  101   674.4246   16.6237
  102   674.6828   16.6364
  103   674.9411   16.6493
  104   675.1997   16.6623
  105   675.4584   16.6752
  106   675.7174   16.6881
  107   675.9766   16.7011
  108   676.2360   16.7141
  109   676.4956   16.7272
  110   676.7554   16.7403
  111   677.0154   16.7533
  112   677.2756   16.7664
  113   677.5361   16.7796
  114   677.7967   16.7928
  115   678.0576   16.8060
  116   678.3186   16.8192
  117   678.5799   16.8325
  118   678.8414   16.8459
  119   679.1031   16.8592
  120   679.3650   16.8725
  121   679.6271   16.8859
  122   679.8895   16.8994
  123   680.1520   16.9128
  124   680.4148   16.9263
  125   680.6777   16.9398
  126   680.9409   16.9534
  127   681.2043   16.9669
  128   681.4679   16.9805
  129   681.7317   16.9941
  130   681.9958   17.0078
  131   687.6040   17.3013
  132   687.8733   17.3155
  133   688.1428   17.3298
  134   688.4125   17.3441
  135   688.6824   17.3584
  136   688.9526   17.3727
  137   689.2230   17.3870
  138   689.4936   17.4015
  139   689.7644   17.4160
  140   690.0354   17.4303
  141   690.3067   17.4447
  142   690.5782   17.4592
  143   690.8499   17.4737
  144   691.1218   17.4882
  145   691.3940   17.5027
  146   691.6663   17.5174
  147   691.9389   17.5321
  148   692.2117   17.5466
  149   692.4847   17.5611
  150   692.7580   17.5758
  151   693.0315   17.5906
  152   693.3052   17.6052
  153   693.5791   17.6198
  154   693.8532   17.6346
  155   694.1276   17.6494
  156   694.4022   17.6642
  157   694.6770   17.6789
  158   694.9521   17.6937
  159   695.2273   17.7086
  160   695.5028   17.7235
  161   695.7785   17.7383
  162   696.0545   17.7532
  163   696.3306   17.7681
  164   696.6070   17.7831
  165   696.8836   17.7980
  166   697.1605   17.8129
  167   697.4375   17.8279
  168   697.7148   17.8429
  169   697.9923   17.8579
  170   698.2701   17.8730
  171   698.5481   17.8880
  172   698.8263   17.9031
  173   699.1047   17.9182
  174   699.3833   17.9333
  175   699.6622   17.9484
  176   699.9413   17.9635
  177   700.2207   17.9787
  178   700.5003   17.9938
  179   700.7800   18.0090
  180   701.0601   18.0242
  181   701.3403   18.0394
  182   701.6208   18.0546
  183   701.9016   18.0699
  184   702.1825   18.0851
  185   702.4637   18.1004
  186   702.7451   18.1157
  187   703.0267   18.1310
  188   703.3086   18.1463
  189   703.5907   18.1616
  190   703.8730   18.1769
  191   704.1556   18.1923
  192   704.4384   18.2077
  193   704.7214   18.2230
  194   705.0047   18.2384
  195   705.2882   18.2538
  196   705.5719   18.2692
  197   705.8559   18.2846
  198   706.1401   18.3000
  199   706.4245   18.3154
  200   706.7092   18.3309
  201   706.9941   18.3464
  202   707.2792   18.3618
  203   707.5646   18.3773
  204   707.8502   18.3928
  205   708.1360   18.4083
  206   708.4221   18.4238
  207   708.7084   18.4393
  208   708.9950   18.4549
  209   709.2818   18.4704
  210   709.5688   18.4859
  211   709.8560   18.5015
  212   710.1435   18.5171
  213   710.4313   18.5327
  214   710.7193   18.5482
  215   711.0074   18.5637
  216   711.2959   18.5794
  217   711.5846   18.5950
  218   711.8735   18.6106
  219   712.1627   18.6261
  220   712.4521   18.6418
  221   712.7417   18.6575
  222   713.0316   18.6730
  223   713.3217   18.6886
  224   713.6121   18.7043
  225   713.9027   18.7200
  226   714.1935   18.7355
  227   714.4846   18.7512
  228   714.7759   18.7669
  229   715.0675   18.7826
  230   715.3593   18.7982
  231   715.6514   18.8139
  232   715.9437   18.8296
  233   716.2362   18.8452
  234   716.5290   18.8608
  235   716.8220   18.8765
  236   717.1153   18.8923
  237   717.4088   18.9080
  238   717.7025   18.9236
  239   717.9965   18.9393
  240   718.2908   18.9551
  241   718.5852   18.9708
  242   718.8800   18.9864
  243   719.1750   19.0021
  244   719.4702   19.0180
  245   719.7656   19.0337
  246   720.0614   19.0493
  247   720.3573   19.0651
  248   720.6535   19.0810
  249   720.9500   19.0967
  250   721.2467   19.1123
  251   721.5436   19.1281
  252   721.8408   19.1441
  253   722.1383   19.1598
  254   722.4360   19.1753
  255   722.7339   19.1912
  256   723.0321   19.2074
  257   723.3305   19.2229
  258   723.6292   19.2385
  259   723.9281   19.2546
  260   724.2273   19.2707
  261   724.5267   19.2862
  262   724.8264   19.3018
  263   725.1264   19.3181
  264   725.4265   19.3342
  265   725.7270   19.3495
  266   726.0277   19.3654
  267   726.3286   19.3818
  268   726.6298   19.3976
  269   726.9312   19.4131
  270   727.2329   19.4292
  271   727.5349   19.4457
  272   727.8371   19.4613
  273   728.1395   19.4768
  274   728.4423   19.4931
  275   728.0580   19.4729
  276   728.3604   19.4888
  277   728.6630   19.5049
  278   728.9659   19.5208
  279   729.2690   19.5367
  280   729.5724   19.5528
  281   729.8760   19.5689
  282   730.1799   19.5848
  283   730.4840   19.6007
  284   730.7884   19.6168
  285   731.0931   19.6330
  286   731.3979   19.6490
  287   731.7031   19.6650
  288   732.0085   19.6810
  289   732.3141   19.6972
  290   732.6200   19.7134
  291   732.9262   19.7293
  292   733.2326   19.7454
  293   733.5392   19.7617
  294   733.8461   19.7778
  295   734.1533   19.7938
  296   734.4607   19.8101
  297   734.7684   19.8264
  298   735.0763   19.8425
  299   735.3845   19.8585
  300   735.6930   19.8748
  301   736.0017   19.8913
  302   736.3106   19.9074
  303   736.6198   19.9235
  304   736.9293   19.9399
  305   737.2390   19.9564
  306   737.5490   19.9725
  307   737.8593   19.9887
  308   738.1698   20.0052
  309   738.4805   20.0216
  310   738.7916   20.0379
  311   739.1028   20.0541
  312   739.4144   20.0707
  313   739.7262   20.0871
  314   740.0382   20.1035
  315   740.3505   20.1198
  316   740.6631   20.1363
  317   740.9760   20.1530
  318   741.2891   20.1694
  319   741.6024   20.1857
  320   741.9161   20.2023
  321   742.2300   20.2191
  322   742.5441   20.2355
  323   742.8585   20.2519
  324   743.1732   20.2686
  325   743.4881   20.2853
  326   743.8033   20.3018
  327   744.1188   20.3184
  328   744.4345   20.3352
  329   744.7505   20.3519
  330   745.0668   20.3685
  331   745.3833   20.3852
  332   745.7001   20.4020
  333   746.0171   20.4188
  334   746.3344   20.4354
  335   746.6520   20.4523
  336   746.9699   20.4692
  337   747.2880   20.4859
  338   747.6064   20.5027
  339   747.9250   20.5197
  340   748.2439   20.5366
  341   748.5631   20.5534
  342   748.8826   20.5703
  343   749.2023   20.5874
  344   749.5223   20.6043
  345   749.8425   20.6212
  346   750.1631   20.6383
  347   750.4839   20.6555
  348   750.8049   20.6724
  349   751.1263   20.6894
  350   751.4479   20.7066
  351   751.7698   20.7238
  352   752.0919   20.7408
  353   752.4143   20.7580
  354   752.7370   20.7753
  355   753.0600   20.7925
  356   753.3832   20.8097
  357   753.7067   20.8269
  358   754.0305   20.8443
  359   754.3546   20.8617
  360   754.6789   20.8788
  361   755.0035   20.8963
  362   755.3284   20.9138
  363   755.6535   20.9311
  364   755.9789   20.9485
  365   756.3046   20.9660
  366   756.6306   20.9837
  367   756.9568   21.0009
  368   757.2834   21.0185
  369   757.6102   21.0362
  370   757.9372   21.0537
  371   758.2646   21.0712
  372   758.5922   21.0889
  373   758.9201   21.1067
  374   759.2483   21.1243
  375   759.5768   21.1420
  376   759.9055   21.1599
  377   760.2345   21.1777
  378   760.5638   21.1954
  379   760.8934   21.2133
  380   761.2233   21.2312
  381   761.5534   21.2490
  382   761.8838   21.2669
  383   762.2145   21.2849
  384   762.5455   21.3029
  385   762.8767   21.3208
  386   763.2083   21.3390
  387   763.5401   21.3570
  388   763.8722   21.3751
  389   764.2046   21.3933
  390   764.5372   21.4114
  391   764.8702   21.4296
  392   765.2034   21.4479
  393   765.5369   21.4662
  394   765.8707   21.4844
  395   766.2048   21.5028
  396   766.5392   21.5212
  397   766.8738   21.5395
  398   767.2087   21.5580
  399   767.5440   21.5765
  400   767.8795   21.5949
  401   768.2153   21.6134
  402   768.5513   21.6321
  403   768.8877   21.6506
  404   769.2244   21.6692
  405   769.5613   21.6880
  406   769.8985   21.7067
  407   770.2360   21.7253
  408   770.5738   21.7440
  409   770.9119   21.7632
  410   771.2503   21.7818
  411   771.5890   21.8004
  412   771.9279   21.8196
  413   772.2672   21.8387
  414   772.6067   21.8573
  415   772.9465   21.8763
  416   773.2867   21.8958
  417   773.6271   21.9148
  418   773.9678   21.9334
  419   774.3088   21.9528
  420   774.6500   21.9724
  421   774.9916   21.9913
  422   775.3335   22.0103
  423   775.6756   22.0301
  424   776.0181   22.0494
  425   776.3609   22.0683
  426   776.7039   22.0878
  427   777.0472   22.1078
  428   777.3909   22.1266
  429   777.7348   22.1461
  430   778.0790   22.1660
  431   778.4235   22.1856
  432   778.7683   22.2048
  433   779.1134   22.2245
  434   779.4588   22.2446
  435   779.8045   22.2639
  436   780.1505   22.2835
  437   780.4968   22.3038
  438   780.8434   22.3236
  439   781.1903   22.3429
  440   781.5375   22.3630
  441   781.8850   22.3832
  442   789.2663   22.8097
  443   789.6200   22.8303
  444   789.9741   22.8509
  445   790.3284   22.8717
  446   790.6831   22.8924
  447   791.0381   22.9130
  448   791.3934   22.9340
  449   791.7490   22.9547
  450   792.1048   22.9755
  451   792.4610   22.9965
  452   792.8176   23.0175
  453   793.1744   23.0383
  454   793.5315   23.0594
  455   793.8889   23.0805
  456   794.2467   23.1014
  457   794.6047   23.1225
  458   794.9631   23.1438
  459   795.3217   23.1648
  460   795.6807   23.1860
  461   796.0400   23.2072
  462   796.3996   23.2284
  463   796.7595   23.2498
  464   797.1197   23.2710
  465   797.4802   23.2925
  466   797.8411   23.3139
  467   798.2022   23.3351
  468   798.5637   23.3566
  469   798.9255   23.3783
  470   799.2876   23.3996
  471   799.6500   23.4210
  472   800.0127   23.4429
  473   800.3758   23.4644
  474   800.7391   23.4858
  475   801.1028   23.5078
  476   801.4667   23.5295
  477   801.8310   23.5509
  478   802.1956   23.5728
  479   802.5606   23.5949
  480   802.9258   23.6164
  481   803.2914   23.6382
  482   803.6573   23.6606
  483   804.0235   23.6822
  484   804.3900   23.7039
  485   804.7568   23.7262
  486   805.1240   23.7484
  487   805.4915   23.7699
  488   805.8592   23.7921
  489   806.2274   23.8147
  490   806.5958   23.8365
  491   806.9646   23.8583
  492   807.3336   23.8811
  493   807.7030   23.9034
  494   808.0728   23.9251
  495   808.4428   23.9477
  496   808.8132   23.9703
  497   809.1839   23.9921
  498   809.5549   24.0146
  499   809.9262   24.0375
  500   810.2979   24.0596
  501   810.6699   24.0818
  502   811.0422   24.1048
  503   811.4148   24.1275
  504   811.7878   24.1494
  505   812.1611   24.1723
  506   812.5347   24.1953
  507   812.9086   24.2174
  508   813.2829   24.2401
  509   813.6575   24.2634
  510   814.0324   24.2857
  511   814.4076   24.3083
  512   814.7832   24.3316
  513   815.1591   24.3544
  514   815.5354   24.3769
  515   815.9119   24.4000
  516   816.2888   24.4233
  517   816.6661   24.4457
  518   817.0436   24.4688
  519   817.4215   24.4924
  520   817.7998   24.5149
  521   818.1783   24.5377
  522   818.5572   24.5616
  523   818.9364   24.5843
  524   819.3160   24.6072
  525   819.6959   24.6310
  526   820.0761   24.6542
  527   820.4566   24.6769
  528   820.8375   24.7005
  529   821.2188   24.7241
  530   821.6003   24.7468
  531   821.9822   24.7705
  532   822.3645   24.7942
  533   822.7470   24.8171
  534   823.1299   24.8406
  535   823.5132   24.8646
  536   823.8968   24.8877
  537   824.2807   24.9109
  538   824.6649   24.9352
  539   825.0495   24.9588
  540   825.4345   24.9818
  541   825.8198   25.0058
  542   826.2054   25.0295
  543   826.5913   25.0528
  544   826.9776   25.0770
  545   827.3643   25.1008
  546   827.7513   25.1242
  547   828.1386   25.1483
  548   828.5263   25.1722
  549   828.9143   25.1958
  550   829.3026   25.2198
  551   829.6913   25.2438
  552   830.0804   25.2676
  553   830.4698   25.2916
  554   830.8595   25.3158
  555   831.2496   25.3397
  556   831.6400   25.3636
  557   832.0308   25.3880
  558   832.4219   25.4119
  559   832.8134   25.4360
  560   833.2052   25.4603
  561   833.5973   25.4844
  562   833.9899   25.5086
  563   834.3827   25.5329
  564   834.7759   25.5572
  565   835.1695   25.5814
  566   835.5634   25.6057
  567   835.9576   25.6302
  568   836.3522   25.6545
  569   836.7472   25.6788
  570   837.1425   25.7034
  571   837.5382   25.7278
  572   837.9342   25.7522
  573   838.3306   25.7769
  574   838.7273   25.8014
  575   839.1243   25.8257
  576   839.5218   25.8506
  577   839.9196   25.8752
  578   840.3177   25.8995
  579   840.7162   25.9246
  580   841.1150   25.9492
  581   841.5142   25.9736
  582   841.9138   25.9988
  583   842.3137   26.0235
  584   842.7140   26.0480
  585   843.1146   26.0732
  586   843.5156   26.0980
  587   843.9170   26.1226
  588   844.3187   26.1479
  589   844.7208   26.1728
  590   845.1232   26.1976
  591   845.5260   26.2229
  592   845.9291   26.2479
  593   846.3326   26.2727
  594   846.7365   26.2980
  595   847.1407   26.3233
  596   847.5454   26.3482
  597   847.9503   26.3737
  598   848.3556   26.3988
  599   848.7613   26.4239
  600   849.1674   26.4494
  601   849.5738   26.4747
  602   849.9806   26.4999
  603   850.3877   26.5256
  604   850.7952   26.5509
  605   851.2031   26.5761
  606   851.6114   26.6020
  607   852.0200   26.6274
  608   852.4290   26.6527
  609   851.4931   26.5938
  610   851.7998   26.6134
  611   852.1067   26.6330
  612   852.4138   26.6515
  613   852.7212   26.6706
  614   853.0289   26.6906
  615   853.3367   26.7097
  616   853.6448   26.7283
  617   853.9532   26.7478
  618   854.2618   26.7677
  619   854.5706   26.7868
  620   854.8797   26.8055
  621   855.1890   26.8253
  622   855.4986   26.8451
  623   855.8084   26.8642
  624   856.1184   26.8831
  625   856.4287   26.9031
  626   856.7393   26.9229
  627   857.0501   26.9419
  628   857.3611   26.9613
  629   857.6723   26.9811
  630   857.9839   27.0008
  631   858.2956   27.0200
  632   858.6076   27.0396
  633   858.9199   27.0597
  634   859.2324   27.0791
  635   859.5451   27.0983
  636   859.8581   27.1183
  637   860.1713   27.1383
  638   860.4848   27.1578
  639   860.7985   27.1774
  640   861.1125   27.1975
  641   861.4267   27.2174
  642   861.7412   27.2368
  643   862.0559   27.2567
  644   862.3709   27.2769
  645   862.6861   27.2966
  646   863.0015   27.3163
  647   863.3173   27.3363
  648   863.6332   27.3566
  649   863.9494   27.3763
  650   864.2659   27.3961
  651   864.5826   27.4164
  652   864.8995   27.4366
  653   865.2168   27.4563
  654   865.5342   27.4764
  655   865.8519   27.4968
  656   866.1699   27.5169
  657   866.4881   27.5367
  658   866.8066   27.5571
  659   867.1253   27.5775
  660   867.4442   27.5975
  661   867.7635   27.6176
  662   868.0829   27.6383
  663   868.4027   27.6586
  664   868.7226   27.6786
  665   869.0429   27.6989
  666   869.3634   27.7196
  667   869.6841   27.7399
  668   870.0051   27.7600
  669   870.3263   27.7808
  670   870.6478   27.8014
  671   870.9696   27.8215
  672   871.2916   27.8420
  673   871.6139   27.8627
  674   871.9364   27.8834
  675   872.2592   27.9036
  676   872.5822   27.9244
  677   872.9055   27.9453
  678   873.2291   27.9658
  679   873.5529   27.9862
  680   873.8769   28.0072
  681   874.2012   28.0276
  682   874.5258   28.0488
  683   874.8507   28.0692
  684   875.1758   28.0904
  685   875.5011   28.1112
  686   875.8267   28.1317
  687   876.1526   28.1527
  688   876.4787   28.1739
  689   876.8051   28.1947
  690   877.1318   28.2154
  691   877.4587   28.2366
  692   877.7858   28.2578
  693   878.1133   28.2786
  694   878.4410   28.2995
  695   878.7689   28.3209
  696   879.0971   28.3422
  697   879.4256   28.3630
  698   879.7543   28.3841
  699   880.0833   28.4056
  700   880.4126   28.4268
  701   880.7421   28.4476
  702   881.0719   28.4692
  703   881.4019   28.4908
  704   881.7323   28.5118
  705   882.0628   28.5329
  706   882.3937   28.5547
  707   882.7248   28.5762
  708   883.0561   28.5973
  709   883.3878   28.6187
  710   883.7197   28.6407
  711   884.0518   28.6619
  712   884.3843   28.6831
  713   884.7170   28.7051
  714   885.0499   28.7271
  715   885.3832   28.7480
  716   885.7167   28.7696
  717   886.0504   28.7921
  718   886.3845   28.8135
  719   886.7188   28.8346
  720   887.0533   28.8570
  721   887.3882   28.8791
  722   887.7233   28.9002
  723   888.0586   28.9219
  724   888.3943   28.9447
  725   888.7302   28.9663
  726   889.0664   28.9876
  727   889.4028   29.0101
  728   889.7395   29.0326
  729   890.0765   29.0537
  730   890.4138   29.0759
  731   890.7513   29.0988
  732   891.0891   29.1206
  733   891.4272   29.1419
  734   891.7655   29.1647
  735   892.1042   29.1875
  736   892.4430   29.2087
  737   892.7822   29.2310
  738   893.1216   29.2541
  739   893.4614   29.2761
  740   893.8013   29.2978
  741   894.1416   29.3206
  742   894.4821   29.3435
  743   894.8229   29.3653
  744   895.1640   29.3879
  745   895.5053   29.4111
  746   895.8470   29.4332
  747   896.1889   29.4551
  748   896.5311   29.4784
  749   896.8735   29.5013
  750   897.2162   29.5230
  751   897.5592   29.5462
  752   897.9025   29.5696
  753   898.2461   29.5916
  754   898.5899   29.6141
  755   898.9340   29.6376
  756   899.2784   29.6606
  757   899.6231   29.6826
  758   899.9681   29.7060
  759   900.3133   29.7294
  760   900.6588   29.7518
  761   901.0046   29.7744
  762   901.3507   29.7984
  763   901.6970   29.8211
  764   902.0436   29.8437
  765   902.3905   29.8674
  766   902.7377   29.8909
  767   903.0852   29.9135
  768   903.4330   29.9367
  769   903.7810   29.9608
  770   911.2390   30.4626
  771   911.5938   30.4872
  772   911.9489   30.5107
  773   912.3043   30.5347
  774   912.6599   30.5588
  775   913.0159   30.5830
  776   913.3721   30.6075
  777   913.7286   30.6316
  778   914.0854   30.6558
  779   914.4426   30.6804
  780   914.7999   30.7048
  781   915.1576   30.7290
  782   915.5156   30.7535
  783   915.8739   30.7781
  784   916.2324   30.8025
  785   916.5913   30.8271
  786   916.9504   30.8518
  787   917.3098   30.8763
  788   917.6695   30.9008
  789   918.0295   30.9258
  790   918.3898   30.9505
  791   918.7504   30.9750
  792   919.1113   30.9998
  793   919.4725   31.0249
  794   919.8340   31.0498
  795   920.1957   31.0744
  796   920.5578   31.0995
  797   920.9202   31.1247
  798   921.2828   31.1493
  799   921.6458   31.1743
  800   922.0090   31.2000
  801   922.3725   31.2245
  802   922.7364   31.2496
  803   923.1005   31.2753
  804   923.4649   31.3002
  805   923.8296   31.3253
  806   924.1946   31.3511
  807   924.5599   31.3763
  808   924.9256   31.4014
  809   925.2915   31.4271
  810   925.6577   31.4524
  811   926.0242   31.4777
  812   926.3910   31.5034
  813   926.7581   31.5289
  814   927.1255   31.5542
  815   927.4932   31.5800
  816   927.8612   31.6058
  817   928.2295   31.6312
  818   928.5981   31.6569
  819   928.9670   31.6830
  820   929.3362   31.7084
  821   929.7058   31.7342
  822   930.0756   31.7607
  823   930.4457   31.7861
  824   930.8161   31.8118
  825   931.1868   31.8383
  826   931.5579   31.8640
  827   931.9292   31.8898
  828   932.3008   31.9164
  829   932.6727   31.9424
  830   933.0450   31.9680
  831   933.4175   31.9949
  832   933.7904   32.0209
  833   934.1635   32.0465
  834   934.5370   32.0734
  835   934.9108   32.0999
  836   935.2849   32.1255
  837   935.6592   32.1523
  838   936.0339   32.1790
  839   936.4089   32.2048
  840   936.7842   32.2316
  841   937.1598   32.2589
  842   937.5358   32.2845
  843   937.9120   32.3110
  844   938.2885   32.3386
  845   938.6654   32.3644
  846   939.0425   32.3909
  847   939.4200   32.4188
  848   939.7978   32.4449
  849   940.1759   32.4710
  850   940.5543   32.4991
  851   940.9330   32.5256
  852   941.3120   32.5516
  853   941.6913   32.5801
  854   942.0710   32.6065
  855   942.4510   32.6327
  856   942.8312   32.6608
  857   943.2118   32.6877
  858   943.5927   32.7139
  859   943.9739   32.7420
  860   944.3555   32.7694
  861   944.7373   32.7956
  862   945.1195   32.8237
  863   945.5019   32.8515
  864   945.8847   32.8773
  865   946.2678   32.9057
  866   946.6513   32.9333
  867   947.0350   32.9596
  868   947.4191   32.9877
  869   947.8034   33.0158
  870   948.1881   33.0424
  871   948.5732   33.0704
  872   948.9585   33.0987
  873   949.3441   33.1254
  874   949.7301   33.1534
  875   950.1164   33.1816
  876   950.5030   33.2085
  877   950.8899   33.2367
  878   951.2772   33.2650
  879   951.6647   33.2921
  880   952.0526   33.3203
  881   952.4408   33.3486
  882   952.8294   33.3760
  883   953.2182   33.4040
  884   953.6074   33.4328
  885   953.9969   33.4603
  886   954.3867   33.4881
  887   954.7769   33.5169
  888   955.1673   33.5448
  889   955.5581   33.5729
  890   955.9493   33.6015
  891   956.3407   33.6296
  892   956.7325   33.6578
  893   957.1246   33.6866
  894   957.5170   33.7146
  895   957.9097   33.7428
  896   958.3028   33.7721
  897   958.6962   33.8000
  898   959.0900   33.8283
  899   959.4840   33.8576
  900   959.8784   33.8858
  901   960.2731   33.9142
  902   960.6682   33.9436
  903   961.0635   33.9722
  904   961.4592   34.0003
  905   961.8553   34.0298
  906   962.2516   34.0585
  907   962.6483   34.0866
  908   963.0453   34.1165
  909   963.4427   34.1452
  910   963.8404   34.1736
  911   964.2384   34.2033
  912   964.6368   34.2321
  913   965.0354   34.2608
  914   965.4345   34.2904
  915   965.8338   34.3192
  916   966.2335   34.3482
  917   966.6335   34.3780
  918   967.0338   34.4070
  919   967.4345   34.4358
  920   967.8356   34.4660
  921   968.2369   34.4949
  922   968.6386   34.5241
  923   969.0406   34.5540
  924   969.4430   34.5828
  925   969.8457   34.6127
  926   970.2488   34.6423
  927   970.6521   34.6713
  928   971.0559   34.7017
  929   971.4599   34.7307
  930   971.8643   34.7606
  931   972.2691   34.7906
  932   972.6741   34.8199
  933   973.0795   34.8497
  934   973.4853   34.8802
  935   973.8914   34.9093
  936   974.2978   34.9395
  937   973.8223   34.9043
  938   974.2287   34.9343
  939   974.6355   34.9642
  940   975.0426   34.9941
  941   975.4501   35.0241
  942   975.8579   35.0541
  943   976.2660   35.0842
  944   976.6745   35.1142
  945   977.0833   35.1443
  946   977.4924   35.1745
  947   977.9019   35.2047
  948   978.3117   35.2347
  949   978.7219   35.2652
  950   979.1324   35.2956
  951   979.5433   35.3255
  952   979.9545   35.3563
  953   980.3660   35.3865
  954   980.7779   35.4168
  955   981.1901   35.4476
  956   981.6027   35.4777
  957   982.0156   35.5083
  958   982.4289   35.5392
  959   982.8425   35.5695
  960   983.2565   35.6000
  961   983.6707   35.6310
  962   984.0854   35.6614
  963   984.5004   35.6923
  964   984.9157   35.7231
  965   985.3314   35.7537
  966   985.7474   35.7845
  967   986.1638   35.8158
  968   986.5805   35.8462
  969   986.9976   35.8773
  970   987.4150   35.9083
  971   987.8328   35.9391
  972   988.2509   35.9705
  973   988.6694   36.0014
  974   989.0882   36.0323
  975   989.5074   36.0639
  976   989.9269   36.0947
  977   990.3468   36.1258
  978   990.7670   36.1577
  979   991.1876   36.1884
  980   991.6085   36.2198
  981   992.0298   36.2514
  982   992.4515   36.2823
  983   992.8734   36.3141
  984   993.2958   36.3456
  985   993.7185   36.3764
  986   994.1415   36.4087
  987   994.5650   36.4399
  988   994.9887   36.4711
  989   995.4129   36.5034
  990   995.8373   36.5346
  991   996.2622   36.5661
  992   996.6874   36.5985
  993   997.1129   36.6296
  994   997.5389   36.6615
  995   997.9651   36.6937
  996   998.3918   36.7248
  997   998.8187   36.7572
  998   999.2461   36.7892
  999   999.6738   36.8205
 1000  1000.1019   36.8532
 1001  1000.5303   36.8849
 1002  1000.9591   36.9166
 1003  1001.3882   36.9494
 1004  1001.8178   36.9810
 1005  1002.2476   37.0130
 1006  1002.6779   37.0457
 1007  1003.1085   37.0774
 1008  1003.5395   37.1099
 1009  1003.9708   37.1422
 1010  1004.4025   37.1742
 1011  1004.8346   37.2068
 1012  1005.2670   37.2392
 1013  1005.6998   37.2712
 1014  1006.1329   37.3041
 1015  1006.5665   37.3364
 1016  1007.0003   37.3688
 1017  1007.4346   37.4016
 1018  1007.8692   37.4339
 1019  1008.3042   37.4665
 1020  1008.7396   37.4993
 1021  1009.1753   37.5318
 1022  1009.6114   37.5645
 1023  1010.0479   37.5974
 1024  1010.4847   37.6300
 1025  1010.9220   37.6629
 1026  1011.3595   37.6957
 1027  1011.7975   37.7286
 1028  1012.2358   37.7616
 1029  1012.6745   37.7945
 1030  1013.1136   37.8274
 1031  1013.5530   37.8606
 1032  1013.9929   37.8934
 1033  1014.4330   37.9266
 1034  1014.8736   37.9598
 1035  1015.3146   37.9927
 1036  1015.7559   38.0262
 1037  1016.1976   38.0592
 1038  1016.6396   38.0924
 1039  1017.0821   38.1260
 1040  1017.5249   38.1589
 1041  1017.9681   38.1926
 1042  1018.4117   38.2260
 1043  1018.8556   38.2591
 1044  1019.3000   38.2931
 1045  1019.7447   38.3261
 1046  1020.1897   38.3598
 1047  1020.6352   38.3937
 1048  1021.0811   38.4266
 1049  1021.5273   38.4609
 1050  1021.9739   38.4944
 1051  1022.4209   38.5277
 1052  1022.8683   38.5622
 1053  1023.3160   38.5953
 1054  1023.7642   38.6294
 1055  1024.2127   38.6636
 1056  1024.6616   38.6967
 1057  1025.1109   38.7313
 1058  1025.5606   38.7652
 1059  1026.0106   38.7986
 1060  1026.4611   38.8336
 1061  1026.9119   38.8668
 1062  1027.3631   38.9011
 1063  1027.8147   38.9360
 1064  1028.2667   38.9691
 1065  1028.7191   39.0041
 1066  1029.1718   39.0382
 1067  1029.6250   39.0719
 1068  1030.0785   39.1072
 1069  1030.5324   39.1407
 1070  1030.9868   39.1752
 1071  1031.4415   39.2104
 1072  1031.8966   39.2438
 1073  1032.3520   39.2794
 1074  1032.8079   39.3135
 1075  1033.2642   39.3476
 1076  1033.7209   39.3833
 1077  1034.1779   39.4169
 1078  1034.6354   39.4520
 1079  1035.0932   39.4872
 1080  1035.5515   39.5210
 1081  1036.0101   39.5569
 1082  1036.4691   39.5910
 1083  1036.9285   39.6259
 1084  1037.3883   39.6616
 1085  1037.8486   39.6954
 1086  1038.3092   39.7312
 1087  1038.7702   39.7661
 1088  1039.2316   39.8005
 1089  1039.6934   39.8368
 1090  1040.1556   39.8710
 1091  1040.6182   39.9065
 1092  1041.0812   39.9421
 1093  1041.5446   39.9765
 1094  1042.0084   40.0128
 1095  1042.4726   40.0476
 1096  1042.9372   40.0829
 1097  1043.4022   40.1189
 1098  1043.8676   40.1535
 1099  1044.3334   40.1897
 1100  1044.7996   40.2250
 1101  1045.2662   40.2603
 1102  1045.7332   40.2967
 1103  1046.2006   40.3315
 1104  1056.0801   41.0872
 1105  1056.5559   41.1237
 1106  1057.0322   41.1602
 1107  1057.5088   41.1968
 1108  1057.9859   41.2334
 1109  1058.4634   41.2700
 1110  1058.9412   41.3067
 1111  1059.4195   41.3434
 1112  1059.8982   41.3802
 1113  1060.3773   41.4170
 1114  1060.8569   41.4538
 1115  1061.3368   41.4907
 1116  1061.8172   41.5276
 1117  1062.2979   41.5646
 1118  1062.7791   41.6015
 1119  1063.2607   41.6386
 1120  1063.7427   41.6757
 1121  1064.2251   41.7127
 1122  1064.7080   41.7500
 1123  1065.1912   41.7871
 1124  1065.6749   41.8245
 1125  1066.1590   41.8617
 1126  1066.6435   41.8990
 1127  1067.1284   41.9365
 1128  1067.6138   41.9736
 1129  1068.0995   42.0114
 1130  1068.5857   42.0487
 1131  1069.0723   42.0862
 1132  1069.5594   42.1239
 1133  1070.0468   42.1613
 1134  1070.5347   42.1992
 1135  1071.0230   42.2367
 1136  1071.5117   42.2745
 1137  1072.0008   42.3125
 1138  1072.4904   42.3499
 1139  1072.9803   42.3883
 1140  1073.4707   42.4258
 1141  1073.9616   42.4639
 1142  1074.4528   42.5020
 1143  1074.9445   42.5396
 1144  1075.4366   42.5784
 1145  1075.9291   42.6158
 1146  1076.4221   42.6544
 1147  1076.9155   42.6926
 1148  1077.4093   42.7306
 1149  1077.9036   42.7694
 1150  1078.3982   42.8070
 1151  1078.8933   42.8462
 1152  1079.3889   42.8839
 1153  1079.8848   42.9227
 1154  1080.3812   42.9614
 1155  1080.8781   42.9993
 1156  1081.3753   43.0389
 1157  1081.8730   43.0764
 1158  1082.3711   43.1162
 1159  1082.8697   43.1541
 1160  1083.3687   43.1930
 1161  1083.8681   43.2326
 1162  1084.3680   43.2702
 1163  1084.8683   43.3104
 1164  1085.3690   43.3483
 1165  1085.8702   43.3883
 1166  1086.3718   43.4268
 1167  1086.8738   43.4653
 1168  1087.3763   43.5054
 1169  1087.8792   43.5436
 1170  1088.3826   43.5837
 1171  1088.8864   43.6223
 1172  1089.3906   43.6619
 1173  1089.8953   43.7013
 1174  1090.4004   43.7406
 1175  1090.9060   43.7806
 1176  1091.4120   43.8188
 1177  1091.9184   43.8595
 1178  1092.4253   43.8982
 1179  1092.9327   43.9384
 1180  1093.4404   43.9781
 1181  1093.9487   44.0173
 1182  1094.4573   44.0576
 1183  1094.9665   44.0968
 1184  1095.4760   44.1372
 1185  1095.9860   44.1768
 1186  1096.4965   44.2168
 1187  1097.0074   44.2568
 1188  1097.5187   44.2967
 1189  1098.0305   44.3370
 1190  1098.5428   44.3768
 1191  1099.0555   44.4173
 1192  1099.5686   44.4573
 1193  1100.0822   44.4976
 1194  1100.5963   44.5380
 1195  1101.1108   44.5781
 1196  1101.6257   44.6188
 1197  1102.1411   44.6590
 1198  1102.6570   44.6996
 1199  1103.1733   44.7402
 1200  1103.6900   44.7807
 1201  1104.2073   44.8213
 1202  1104.7249   44.8621
 1203  1105.2431   44.9027
 1204  1105.7617   44.9436
 1205  1106.2807   44.9843
 1206  1106.8002   45.0253
 1207  1107.3202   45.0660
 1208  1107.8406   45.1072
 1209  1108.3615   45.1480
 1210  1108.8828   45.1892
 1211  1109.4046   45.2303
 1212  1109.9269   45.2713
 1213  1110.4496   45.3128
 1214  1110.9728   45.3536
 1215  1111.4964   45.3954
 1216  1112.0205   45.4363
 1217  1112.5451   45.4781
 1218  1113.0702   45.5193
 1219  1113.5957   45.5608
 1220  1114.1216   45.6025
 1221  1114.6481   45.6440
 1222  1115.1750   45.6856
 1223  1115.7023   45.7271
 1224  1116.2302   45.7693
 1225  1116.7585   45.8105
 1226  1117.2872   45.8529
 1227  1117.8165   45.8941
 1228  1118.3462   45.9368
 1229  1118.8763   45.9781
 1230  1119.4070   46.0206
 1231  1119.9381   46.0624
 1232  1120.4697   46.1045
 1233  1121.0018   46.1469
 1234  1121.5343   46.1888
 1235  1122.0673   46.2315
 1236  1122.6008   46.2733
 1237  1123.1347   46.3162
 1238  1123.6692   46.3581
 1239  1124.2041   46.4007
 1240  1124.7394   46.4435
 1241  1125.2753   46.4857
 1242  1125.8116   46.5287
 1243  1126.3485   46.5709
 1244  1126.8857   46.6141
 1245  1127.4235   46.6565
 1246  1127.9618   46.6995
 1247  1128.5005   46.7422
 1248  1129.0397   46.7851
 1249  1129.5794   46.8282
 1250  1130.1196   46.8711
 1251  1130.6602   46.9143
 1252  1131.2014   46.9572
 1253  1131.7430   47.0006
 1254  1132.2851   47.0435
 1255  1132.8277   47.0870
 1256  1133.3708   47.1301
 1257  1133.9143   47.1736
 1258  1134.4584   47.2168
 1259  1135.0029   47.2604
 1260  1135.5479   47.3038
 1261  1136.0934   47.3474
 1262  1136.6394   47.3909
 1263  1216.9787   53.8935
 1264  1217.4857   53.9346
 1265  1217.9931   53.9764
 1266  1218.5009   54.0176
 1267  1219.0092   54.0593
 1268  1219.5179   54.1009
 1269  1220.0270   54.1422
 1270  1220.5365   54.1844
 1271  1221.0465   54.2254
 1272  1221.5568   54.2678
 1273  1222.0676   54.3089
 1274  1222.5788   54.3513
 1275  1223.0905   54.3927
 1276  1223.6025   54.4347
 1277  1224.1150   54.4767
 1278  1224.6280   54.5183
 1279  1225.1413   54.5609
 1280  1225.6551   54.6021
 1281  1226.1693   54.6450
 1282  1226.6839   54.6862
 1283  1227.1990   54.7291
 1284  1227.7144   54.7707
 1285  1228.2303   54.8132
 1286  1228.7467   54.8555
 1287  1229.2635   54.8974
 1288  1229.7807   54.9403
 1289  1230.2983   54.9819
 1290  1230.8164   55.0251
 1291  1231.3349   55.0667
 1292  1231.8538   55.1099
 1293  1232.3731   55.1518
 1294  1232.8929   55.1947
 1295  1233.4132   55.2371
 1296  1233.9338   55.2797
 1297  1234.4549   55.3225
 1298  1234.9765   55.3649
 1299  1235.4984   55.4080
 1300  1236.0208   55.4504
 1301  1236.5437   55.4935
 1302  1237.0670   55.5360
 1303  1237.5907   55.5792
 1304  1238.1148   55.6217
 1305  1238.6394   55.6651
 1306  1239.1645   55.7076
 1307  1239.6899   55.7510
 1308  1240.2158   55.7938
 1309  1240.7422   55.8371
 1310  1241.2690   55.8801
 1311  1241.7962   55.9232
 1312  1242.3239   55.9666
 1313  1242.8520   56.0095
 1314  1243.3806   56.0532
 1315  1243.9096   56.0960
 1316  1244.4390   56.1400
 1317  1244.9689   56.1827
 1318  1245.4992   56.2267
 1319  1246.0300   56.2697
 1320  1246.5612   56.3136
 1321  1247.0929   56.3568
 1322  1247.6250   56.4006
 1323  1248.1576   56.4441
 1324  1248.6906   56.4877
 1325  1249.2241   56.5316
 1326  1249.7580   56.5749
 1327  1250.2923   56.6192
 1328  1250.8271   56.6624
 1329  1251.3624   56.7068
 1330  1251.8981   56.7500
 1331  1252.4343   56.7946
 1332  1252.9709   56.8380
 1333  1253.5079   56.8824
 1334  1254.0455   56.9262
 1335  1254.5834   56.9703
 1336  1255.1218   57.0144
 1337  1255.6607   57.0583
 1338  1256.2001   57.1029
 1339  1256.7398   57.1466
 1340  1257.2801   57.1913
 1341  1257.8208   57.2352
 1342  1258.3619   57.2799
 1343  1258.9035   57.3239
 1344  1259.4456   57.3686
 1345  1259.9881   57.4128
 1346  1260.5311   57.4574
 1347  1261.0746   57.5018
 1348  1261.6185   57.5465
 1349  1262.1628   57.5909
 1350  1262.7076   57.6358
 1351  1263.2529   57.6802
 1352  1263.7987   57.7252
 1353  1264.3449   57.7696
 1354  1264.8915   57.8147
 1355  1265.4387   57.8591
 1356  1265.9863   57.9045
 1357  1266.5343   57.9489
 1358  1267.0829   57.9943
 1359  1267.6318   58.0389
 1360  1268.1813   58.0842
 1361  1268.7312   58.1291
 1362  1269.2816   58.1741
 1363  1269.8325   58.2195
 1364  1270.3838   58.2643
 1365  1270.9356   58.3101
 1366  1271.4878   58.3545
 1367  1272.0406   58.4009
 1368  1272.5937   58.4449
 1369  1284.3537   59.4096
 1370  1284.9170   59.4566
 1371  1285.4807   59.5021
 1372  1286.0450   59.5491
 1373  1286.6098   59.5949
 1374  1287.1750   59.6417
 1375  1287.7407   59.6878
 1376  1288.3069   59.7345
 1377  1288.8736   59.7809
 1378  1289.4408   59.8275
 1379  1290.0084   59.8742
 1380  1290.5765   59.9207
 1381  1291.1452   59.9676
 1382  1291.7143   60.0141
 1383  1292.2839   60.0611
 1384  1292.8540   60.1076
 1385  1293.4245   60.1549
 1386  1293.9956   60.2014
 1387  1294.5671   60.2487
 1388  1295.1392   60.2954
 1389  1295.7117   60.3427
 1390  1296.2847   60.3896
 1391  1296.8582   60.4369
 1392  1297.4323   60.4839
 1393  1298.0068   60.5312
 1394  1298.5817   60.5785
 1395  1299.1572   60.6258
 1396  1299.7332   60.6733
 1397  1300.3097   60.7206
 1398  1300.8867   60.7682
 1399  1301.4641   60.8153
 1400  1302.0421   60.8633
 1401  1302.6205   60.9104
 1402  1303.1995   60.9585
 1403  1303.7790   61.0057
 1404  1304.3589   61.0539
 1405  1304.9394   61.1012
 1406  1305.5203   61.1495
 1407  1306.1018   61.1969
 1408  1306.6837   61.2453
 1409  1307.2662   61.2927
 1410  1307.8491   61.3412
 1411  1308.4326   61.3888
 1412  1309.0166   61.4373
 1413  1309.6010   61.4851
 1414  1310.1860   61.5335
 1415  1310.7715   61.5814
 1416  1311.3575   61.6302
 1417  1311.9440   61.6780
 1418  1312.5310   61.7267
 1419  1313.1185   61.7750
 1420  1313.7065   61.8236
 1421  1314.2950   61.8720
 1422  1314.8840   61.9207
 1423  1315.4736   61.9691
 1424  1316.0636   62.0180
 1425  1316.6542   62.0665
 1426  1317.2452   62.1154
 1427  1317.8368   62.1641
 1428  1318.4289   62.2131
 1429  1319.0215   62.2618
 1430  1319.6146   62.3109
 1431  1320.2083   62.3597
 1432  1320.8024   62.4090
 1433  1321.3971   62.4579
 1434  1321.9923   62.5073
 1435  1322.5880   62.5562
 1436  1323.1842   62.6057
 1437  1323.7809   62.6547
 1438  1324.3782   62.7044
 1439  1324.9759   62.7534
 1440  1325.5742   62.8032
 1441  1326.1730   62.8524
 1442  1326.7724   62.9023
 1443  1327.3722   62.9515
 1444  1327.9726   63.0015
 1445  1328.5735   63.0508
 1446  1329.1749   63.1009
 1447  1329.7768   63.1504
 1448  1330.3793   63.2005
 1449  1330.9823   63.2503
 1450  1331.5858   63.3002
 1451  1332.1898   63.3503
 1452  1332.7944   63.4002
 1453  1333.3995   63.4506
 1454  1334.0051   63.5004
 1455  1334.6113   63.5510
 1456  1335.2180   63.6008
 1457  1335.8252   63.6516
 1458  1336.4329   63.7014
 1459  1337.0412   63.7523
 1460  1337.6500   63.8023
 1461  1338.2593   63.8533
 1462  1338.8692   63.9035
 1463  1338.1662   63.8454
 1464  1338.6744   63.8875
 1465  1339.1829   63.9297
 1466  1339.6919   63.9720
 1467  1340.2013   64.0142
 1468  1340.7110   64.0565
 1469  1341.2212   64.0988
 1470  1341.7318   64.1413
 1471  1342.2428   64.1835
 1472  1342.7542   64.2261
 1473  1343.2660   64.2686
 1474  1343.7782   64.3110
 1475  1344.2909   64.3537
 1476  1344.8039   64.3962
 1477  1345.3174   64.4390
 1478  1345.8312   64.4817
 1479  1346.3455   64.5242
 1480  1346.8602   64.5672
 1481  1347.3753   64.6099
 1482  1347.8908   64.6529
 1483  1348.4067   64.6958
 1484  1348.9230   64.7384
 1485  1349.4398   64.7818
 1486  1349.9570   64.8247
 1487  1350.4745   64.8678
 1488  1350.9925   64.9106
 1489  1351.5109   64.9540
 1490  1352.0298   64.9968
 1491  1352.5490   65.0404
 1492  1353.0687   65.0835
 1493  1353.5887   65.1269
 1494  1354.1092   65.1704
 1495  1354.6301   65.2135
 1496  1355.1515   65.2573
 1497  1355.6732   65.3003
 1498  1356.1954   65.3445
 1499  1356.7180   65.3880
 1500  1357.2410   65.4311
 1501  1357.7644   65.4750
 1502  1358.2883   65.5185
 1503  1358.8125   65.5626
 1504  1359.3372   65.6060
 1505  1359.8623   65.6502
 1506  1360.3879   65.6937
 1507  1360.9138   65.7380
 1508  1361.4402   65.7816
 1509  1361.9670   65.8258
 1510  1362.4942   65.8698
 1511  1363.0219   65.9138
 1512  1363.5500   65.9581
 1513  1364.0785   66.0020
 1514  1364.6074   66.0465
 1515  1365.1368   66.0905
 1516  1365.6666   66.1350
 1517  1366.1968   66.1792
 1518  1366.7274   66.2237
 1519  1367.2585   66.2681
 1520  1367.7900   66.3126
 1521  1368.3219   66.3571
 1522  1368.8543   66.4016
 1523  1369.3871   66.4463
 1524  1369.9203   66.4908
 1525  1370.4540   66.5357
 1526  1370.9880   66.5803
 1527  1371.5225   66.6252
 1528  1372.0575   66.6700
 1529  1372.5929   66.7149
 1530  1373.1287   66.7598
 1531  1373.6649   66.8047
 1532  1374.2016   66.8499
 1533  1374.7387   66.8947
 1534  1375.2763   66.9401
 1535  1375.8143   66.9850
 1536  1376.3527   67.0304
 1537  1376.8916   67.0755
 1538  1377.4308   67.1208
 1539  1377.9706   67.1663
 1540  1378.5108   67.2114
 1541  1379.0514   67.2572
 1542  1379.5924   67.3023
 1543  1380.1339   67.3482
 1544  1380.6758   67.3934
 1545  1381.2182   67.4393
 1546  1381.7610   67.4848
 1547  1382.3042   67.5305
 1548  1382.8479   67.5763
 1549  1383.3921   67.6220
 1550  1383.9366   67.6681
 1551  1384.4817   67.7137
 1552  1385.0271   67.7599
 1553  1385.5730   67.8056
 1554  1386.1194   67.8520
 1555  1386.6662   67.8978
 1556  1387.2134   67.9441
 1557  1387.7611   67.9902
 1558  1388.3092   68.0365
 1559  1388.8578   68.0828
 1560  1389.4068   68.1290
 1561  1389.9563   68.1756
 1562  1390.5062   68.2217
 1563  1391.0566   68.2685
 1564  1391.6074   68.3147
 1565  1392.1587   68.3616
 1566  1392.7104   68.4080
 1567  1393.2625   68.4548
 1568  1393.8151   68.5014
 1569  1394.3682   68.5482
 1570  1394.9217   68.5951
 1571  1395.4757   68.6419
 1572  1396.0301   68.6889
 1573  1396.5850   68.7358
 1574  1397.1403   68.7829
 1575  1397.6961   68.8298
 1576  1398.2524   68.8771
 1577  1398.8091   68.9240
 1578  1399.3662   68.9715
 1579  1399.9238   69.0185
 1580  1400.4819   69.0661
 1581  1401.0404   69.1132
 1582  1401.5994   69.1609
 1583  1402.1588   69.2081
 1584  1402.7187   69.2559
 1585  1403.2791   69.3032
 1586  1403.8399   69.3510
 1587  1404.4011   69.3985
 1588  1404.9629   69.4465
 1589  1405.5251   69.4940
 1590  1406.0877   69.5421
 1591  1406.6508   69.5897
 1592  1407.2144   69.6378
 1593  1407.7784   69.6856
 1594  1408.3429   69.7339
 1595  1408.9079   69.7817
 1596  1409.4733   69.8302
 1597  1410.0392   69.8781
 1598  1410.6056   69.9266
 1599  1411.1724   69.9746
 1600  1411.7397   70.0232
 1601  1412.3075   70.0714
 1602  1412.8757   70.1201
 1603  1413.4444   70.1684
 1604  1414.0136   70.2172
 1605  1414.5832   70.2655
 1606  1415.1533   70.3145
 1607  1415.7239   70.3629
 1608  1416.2949   70.4120
 1609  1416.8664   70.4606
 1610  1417.4384   70.5097
 1611  1418.0109   70.5584
 1612  1418.5838   70.6076
 1613  1419.1572   70.6564
 1614  1419.7311   70.7058
 1615  1420.3054   70.7547
 1616  1420.8802   70.8041
 1617  1421.4555   70.8532
 1618  1422.0313   70.9027
 1619  1422.6075   70.9518
 1620  1423.1842   71.0015
 1621  1423.7614   71.0508
 1622  1424.3391   71.1005
 1623  1424.9173   71.1500
 1624  1425.4959   71.1998
 1625  1426.0750   71.2494
 1626  1426.6546   71.2992
 1627  1427.2347   71.3489
 1628  1427.8152   71.3990
 1629  1428.3962   71.4487
 1630  1428.9778   71.4990
 1631  1429.5597   71.5487
 1632  1430.1422   71.5992
 1633  1430.7252   71.6489
 1634  1431.3086   71.6996
 1635  1431.8925   71.7493
 1636  1432.4770   71.8002
 1637  1433.0618   71.8500
 1638  1433.6472   71.9010
 1639  1434.2331   71.9510
 1640  1434.8194   72.0021
 1641  1435.4063   72.0521
 1642  1435.9936   72.1034
 1643  1436.5814   72.1533
 1644  1437.1697   72.2049
 1645  1437.7585   72.2549
 1646  1438.3478   72.3067
 1647  1438.9376   72.3566
 1648  1439.5278   72.4086
 1649  1440.1186   72.4587
 1650  1440.7098   72.5107
 1651  1441.3016   72.5608
 1652  1441.8938   72.6129
 1653  1442.4865   72.6634
 1654  1443.0797   72.7152
 1655  1460.2707   74.2026
 1656  1460.8790   74.2560
 1657  1461.4878   74.3083
 1658  1462.0972   74.3614
 1659  1462.7070   74.4137
 1660  1463.3173   74.4667
 1661  1463.9282   74.5194
 1662  1464.5395   74.5725
 1663  1465.1514   74.6255
 1664  1465.7638   74.6783
 1665  1466.3767   74.7315
 1666  1466.9901   74.7843
 1667  1467.6040   74.8377
 1668  1468.2184   74.8906
 1669  1468.8333   74.9440
 1670  1469.4488   74.9970
 1671  1470.0647   75.0504
 1672  1470.6812   75.1035
 1673  1471.2982   75.1570
 1674  1471.9157   75.2102
 1675  1472.5337   75.2638
 1676  1473.1523   75.3169
 1677  1473.7713   75.3706
 1678  1474.3909   75.4239
 1679  1475.0110   75.4776
 1680  1475.6316   75.5310
 1681  1476.2527   75.5846
 1682  1476.8744   75.6383
 1683  1477.4965   75.6918
 1684  1478.1192   75.7457
 1685  1478.7424   75.7992
 1686  1479.3661   75.8531
 1687  1479.9904   75.9068
 1688  1480.6152   75.9606
 1689  1481.2405   76.0145
 1690  1481.8663   76.0683
 1691  1482.4926   76.1222
 1692  1483.1195   76.1761
 1693  1483.7469   76.2301
 1694  1484.3748   76.2840
 1695  1485.0033   76.3381
 1696  1485.6322   76.3920
 1697  1486.2618   76.4462
 1698  1486.8918   76.5002
 1699  1487.5224   76.5544
 1700  1488.1534   76.6084
 1701  1488.7851   76.6627
 1702  1489.4172   76.7167
 1703  1490.0499   76.7710
 1704  1490.6831   76.8252
 1705  1491.3169   76.8794
 1706  1491.9512   76.9337
 1707  1492.5860   76.9880
 1708  1493.2213   77.0423
 1709  1493.8572   77.0967
 1710  1494.4936   77.1510
 1711  1495.1306   77.2054
 1712  1495.7681   77.2598
 1713  1496.4061   77.3143
 1714  1497.0447   77.3687
 1715  1497.6838   77.4231
 1716  1498.3235   77.4776
 1717  1498.9636   77.5321
 1718  1499.6044   77.5867
 1719  1500.2456   77.6357
 1720  1500.8875   77.6789
 1721  1501.5298   77.7279
 1722  1502.1727   77.7922
 1723  1502.8161   77.8589
 1724  1503.4601   77.9167
 1725  1504.1047   77.9718
 1726  1504.7497   78.0248
 1727  1505.3953   78.0739
 1728  1506.0415   78.1304
 1729  1506.6882   78.1883
 1730  1507.3355   78.2463
 1731  1507.9833   78.3071
 1732  1508.6316   78.3721
 1733  1509.2805   78.4334
 1734  1509.9300   78.4865
 1735  1510.5800   78.5479
 1736  1511.2306   78.6035
 1737  1511.8817   78.6461
 1738  1512.5333   78.6960
 1739  1513.1855   78.7667
 1740  1513.8383   78.8295
 1741  1514.4916   78.8667
 1742  1515.1455   78.9120
 1743  1515.7999   78.9708
 1744  1516.4549   79.0185
 1745  1517.1105   79.0618
 1746  1517.7666   79.1075
 1747  1518.4232   79.1569
 1748  1519.0804   79.2093
 1749  1519.7382   79.2509
 1750  1520.3965   79.2901
 1751  1521.0554   79.3346
 1752  1521.7149   79.4001
 1753  1522.3749   79.4605
 1754  1523.0355   79.5030
 1755  1523.6966   79.5650
 1756  1524.3583   79.6337
 1757  1525.0206   79.6917
 1758  1525.6834   79.7445
 1759  1526.3468   79.8061
 1760  1527.0108   79.8625
 1761  1541.1032   80.6652
 1762  1541.7791   80.6398
 1763  1542.4556   80.7700
 1764  1543.1326   80.9002
 1765  1543.8103   80.9213
 1766  1544.4885   80.8840
 1767  1545.1673   80.9563
 1768  1545.8466   81.0902
 1769  1546.5266   81.1385
 1770  1547.2071   81.1852
 1771  1547.8882   81.2299
 1772  1548.5699   81.2766
 1773  1549.2522   81.3049
 1774  1549.9351   81.3349
 1775  1550.6185   81.4185
 1776  1551.3026   81.5239
 1777  1551.9872   81.5980
 1778  1552.6724   81.6897
 1779  1553.3582   81.7701
 1780  1554.0446   81.8383
 1781  1554.7316   81.9551
 1782  1555.4191   82.0375
 1783  1556.1073   82.1294
 1784  1556.7960   82.2613
 1785  1557.4854   82.4365
 1786  1558.1753   82.6030
 1787  1558.8658   82.7634
 1788  1559.5569   82.8753
 1789  1560.2486   82.9477
 1790  1560.9409   83.0963
 1791  1561.6338   83.2740
 1792  1562.3273   83.4459
 1793  1563.0214   83.5750
 1794  1563.7161   83.6998
 1795  1564.4114   83.8551
 1796  1565.1073   84.0559
 1797  1565.8037   84.1231
 1798  1566.5008   84.0362
 1799  1567.1985   84.2175
 1800  1567.8968   84.5139
 1801  1568.5957   84.6401
 1802  1569.2952   84.6345
 1803  1569.9953   84.6799
 1804  1570.6960   84.7816
 1805  1571.3973   84.5453
 1806  1572.0992   84.4085
 1807  1572.8017   84.6257
 1808  1573.5048   84.8204
 1809  1574.2085   85.1522
 1810  1574.9128   85.1648
 1811  1575.6178   85.0669
 1812  1576.3233   85.0367
 1813  1577.0295   85.0560
 1814  1577.7363   85.1431
 1815  1578.4437   85.0737
 1816  1579.1517   84.9826
 1817  1579.8603   85.0777
 1818  1580.5695   85.2137
 1819  1581.2793   85.1997
 1820  1581.9898   85.2078
 1821  1582.7008   85.0629
 1822  1583.4125   84.9577
 1823  1584.1248   85.0117
 1824  1584.8378   85.0660
 1825  1585.5513   85.1350
 1826  1586.2654   84.9663
 1827  1586.9802   85.1579
 1828  1587.6956   85.3159
 1829  1588.4116   85.2915
 1830  1589.1283   85.1943
 1831  1589.8455   85.1382
 1832  1590.5634   85.2805
 1833  1591.2819   85.4429
 1834  1592.0011   85.5403
 1835  1592.7208   85.4226
 1836  1593.4412   85.3350
 1837  1594.1622   85.6306
 1838  1594.8839   85.8076
 1839  1595.6061   85.6495
 1840  1596.3290   85.5603
 1841  1597.0526   85.7203
 1842  1597.7767   85.9672
 1843  1598.5015   86.1116
 1844  1599.2269   86.1333
 1845  1599.9530   86.1564
 1846  1600.6797   86.2068
 1847  1601.4070   85.5367
 1848  1602.1350   85.1933
 1849  1602.8636   86.0884
 1850  1603.5928   86.6654
 1851  1604.3227   86.6067
 1852  1605.0532   86.6289
 1853  1605.7843   86.7402
 1854  1606.5161   86.1901
 1855  1607.2485   85.5045
 1856  1607.9816   86.0754
 1857  1608.7153   86.8327
 1858  1609.4496   87.0119
 1859  1610.1846   87.1820
 1860  1610.9203   87.2936
 1861  1611.6565   87.3770
 1862  1612.3935   87.2580
 1863  1613.1310   87.2162
 1864  1613.8692   87.2685
 1865  2181.5032  160.7783
 1866  2182.4089  161.9272
 1867  2183.3154  161.2785
 1868  2184.2225  162.8205
 1869  2185.1305  162.8074
 1870  2186.0391  161.2936
 1871  2186.9486  162.6834
 1872  2187.8587  163.2889
 1873  2188.7696  162.4539
 1874  2189.6813  162.3536
 1875  2190.5937  163.6299
 1876  2191.5069  163.1890
 1877  2192.4208  164.0016
 1878  2193.3354  164.6290
 1879  2194.2508  163.9382
 1880  2195.1670  165.5380
 1881  2196.0839  164.7045
 1882  2197.0015  162.7475
 1883  2197.9200  164.7600
 1884  2198.8391  165.3044
 1885  2199.7591  163.1817
 1886  2200.6797  164.7036
 1887  2201.6012  165.7728
 1888  2202.5234  164.9239
 1889  2203.4463  165.3740
 1890  2204.3701  166.9144
 1891  2205.2945  166.0537
 1892  2206.2198  163.8306
 1893  2207.1458  165.7402
 1894  2208.0725  165.2984
 1895  2209.0001  161.9733
 1896  2209.9284  164.0157
 1897  2210.8574  166.8330
 1898  2211.7872  168.1640
 1899  2212.7178  169.2235
 1900  2213.6492  169.4738
 1901  2214.5813  169.6987
 1902  2215.5142  169.1163
 1903  2216.4479  169.2803
 1904  2217.3823  169.9959
 1905  2218.3175  168.4875
 1906  2219.2535  165.9140
 1907  2220.1903  169.2007
 1908  2221.1278  170.6606
 1909  2222.0661  170.0147
 1910  2223.0052  172.0325
 1911  2223.9451  170.3304
 1912  2224.8857  169.7307
 1913  2225.8271  171.8056
 1914  2226.7693  170.3563
 1915  2227.7123  169.9180
 1916  2228.6560  171.9673
 1917  2229.6006  171.4154
 1918  2230.5459  171.5441
 1919  2231.4920  171.2916
 1920  2232.4389  171.3470
 1921  2233.3866  171.0436
 1922  2234.3350  171.2574
 1923  2235.2843  171.7559
 1924  2236.2343  169.7457
 1925  2237.1851  170.6179
 1926  2238.1367  169.9968
 1927  2239.0891  168.0934
 1928  2240.0423  173.0226
 1929  2240.9963  174.2029
 1930  2241.9511  174.4199
 1931  2242.9067  175.1454
 1932  2243.8630  174.1301
 1933  2244.8202  175.0891
 1934  2245.7782  175.9366
 1935  2246.7369  174.9578
 1936  2247.6965  175.0820
 1937  2248.6568  176.3168
 1938  2249.6180  175.1398
 1939  2250.5799  176.6523
 1940  2251.5427  175.9390
 1941  2252.5062  175.5356
 1942  2253.4706  176.8820
 1943  2254.4357  176.1476
 1944  2255.4017  175.8844
 1945  2256.3685  176.1919
 1946  2257.3361  176.2625
 1947  2258.3044  177.5195
 1948  2259.2736  176.8279
 1949  2260.2436  177.0465
 1950  2261.2144  177.5427
 1951  2262.1861  176.6798
 1952  2263.1585  177.6377
 1953  2264.1318  176.9329
 1954  2265.1058  177.1442
 1955  2266.0807  176.5302
 1956  2267.0564  175.4171
 1957  2268.0329  174.3017
 1958  2269.0102  174.7842
 1959  2269.9884  179.5285
 1960  2270.9673  179.0746
 1961  2271.9471  179.8338
 1962  2272.9277  181.0558
 1963  2273.9091  181.1866
 1964  2274.8914  182.0589
 1965  2275.8744  181.7198
 1966  2276.8583  181.9395
 1967  2277.8430  182.0103
 1968  2278.8286  182.7776
 1969  2279.8149  182.3794
 1970  2280.8021  182.5815
 1971  2281.7902  182.4770
 1972  2282.7790  182.4607
 1973  2283.7687  182.2931
 1974  2284.7592  182.6920
 1975  2285.7506  182.6716
 1976  2286.7428  183.0154
 1977  2287.7358  183.1190
 1978  2288.7296  183.0824
 1979  2289.7243  183.1611
 1980  2290.7198  182.4913
 1981  2291.7162  182.2999
 1982  2292.7134  182.8993
 1983  2293.7114  183.4313
 1984  2294.7103  183.2702
 1985  2295.7100  182.4084
 1986  2296.7106  181.4925
 1987  2297.7120  179.3816
 1988  2298.7142  181.4934
 1989  2299.7173  185.3721
 1990  2300.7213  186.2510
 1991  2301.7261  187.1895
 1992  2302.7317  187.4586
 1993  2303.7382  187.5345
 1994  2304.7455  188.1636
 1995  2305.7537  188.0989
 1996  2306.7627  187.8141
 1997  2307.7726  186.9447
 1998  2308.7834  187.0717
 1999  2309.7949  188.0437
 2000  2310.8074  188.2632
 2001  2311.8207  188.4299
 2002  2312.8349  188.6238
 2003  2313.8499  188.6261
 2004  2314.8658  188.8152
 2005  2315.8825  188.9768
 2006  2316.9001  189.0019
 2007  2317.9186  189.0932
 2008  2318.9379  188.5204
 2009  2319.9581  188.5546
 2010  2320.9791  189.0965
 2011  2322.0010  189.0999
 2012  2323.0238  189.2136
 2013  2324.0475  188.8907
 2014  2325.0720  188.2988
 2015  2299.8072  185.8586
 2016  2300.7118  186.3021
 2017  2301.6172  187.0432
 2018  2302.5233  187.3911
 2019  2303.4301  187.6735
 2020  2304.3376  187.8495
 2021  2305.2459  187.9016
 2022  2306.1549  188.3352
 2023  2307.0647  187.7703
 2024  2307.9752  186.5274
 2025  2308.8865  187.1962
 2026  2309.7985  188.0919
 2027  2310.7112  188.2469
 2028  2311.6247  188.5408
 2029  2312.5390  188.6945
 2030  2313.4539  188.4513
 2031  2314.3697  188.4708
 2032  2315.2862  188.9005
 2033  2316.2034  189.0300
 2034  2317.1213  189.0882
 2035  2318.0401  189.1705
 2036  2318.9595  188.5015
 2037  2319.8798  188.4352
 2038  2320.8008  189.0787
 2039  2321.7225  189.1115
 2040  2322.6450  189.2062
 2041  2323.5682  189.0752
 2042  2324.4922  188.6558
 2043  2325.4170  188.1069
 2044  2326.3425  187.4347
 2045  2327.2687  185.1209
 2046  2328.1958  185.6970
 2047  2329.1235  190.9909
 2048  2330.0521  193.3955
 2049  2330.9814  193.4569
 2050  2331.9115  193.4533
 2051  2332.8423  193.6088
 2052  2333.7739  193.8902
 2053  2334.7063  194.1419
 2054  2335.6394  194.3310
 2055  2336.5733  194.5385
 2056  2337.5079  194.7428
 2057  2338.4434  194.8935
 2058  2339.3795  194.9827
 2059  2340.3165  195.0851
 2060  2341.2542  195.2878
 2061  2342.1927  195.4368
 2062  2343.1320  195.5063
 2063  2344.0721  195.6387
 2064  2345.0129  195.9354
 2065  2345.9545  196.0855
 2066  2346.8969  196.1430
 2067  2347.8400  196.3898
 2068  2348.7839  196.5656
 2069  2349.7286  196.6982
 2070  2350.6741  196.7549
 2071  2351.6204  196.6219
 2072  2352.5674  196.8753
 2073  2353.5152  197.2555
 2074  2354.4638  197.1778
 2075  2355.4132  197.3556
 2076  2356.3634  197.6862
 2077  2357.3143  197.7186
 2078  2358.2660  197.7648
 2079  2359.2186  197.9454
 2080  2360.1719  198.1169
 2081  2361.1260  198.1429
 2082  2362.0808  198.2681
 2083  2363.0365  198.6478
 2084  2363.9930  198.8874
 2085  2364.9502  199.0439
 2086  2365.9083  199.2792
 2087  2366.8671  199.5123
 2088  2367.8267  199.7566
 2089  2368.7871  200.0446
 2090  2369.7484  200.2180
 2091  2370.7104  200.3936
 2092  2371.6732  200.6714
 2093  2372.6368  200.9286
 2094  2373.6012  200.9808
 2095  2374.5664  200.6652
 2096  2375.5324  199.4918
 2097  2376.4992  198.4246
 2098  2377.4668  197.5387
 2099  2378.4352  199.0638
 2100  2379.4044  199.0158
 2101  2380.3744  197.8733
 2102  2381.3453  200.5945
 2103  2382.3169  202.1590
 2104  2383.2893  202.5660
 2105  2384.2626  202.3971
 2106  2385.2366  201.3515
 2107  2386.2115  202.2711
 2108  2387.1871  203.6894
 2109  2388.1636  203.8112
 2110  2389.1409  203.2345
 2111  2390.1190  203.0556
 2112  2391.0979  203.6590
 2113  2392.0777  204.0018
 2114  2393.0582  204.4818
 2115  2394.0396  204.8776
 2116  2395.0218  205.2772
 2117  2396.0048  205.4185
 2118  2396.9886  205.5134
 2119  2397.9732  205.7681
 2120  2398.9587  205.5997
 2121  2399.9450  205.8633
 2122  2400.9321  206.5782
 2123  2401.9200  206.8464
 2124  2402.9088  207.0920
 2125  2403.8983  207.3072
 2126  2404.8887  207.5731
 2127  2405.8800  207.8433
 2128  2406.8720  207.9757
 2129  2407.8649  208.0130
 2130  2408.8586  208.0650
 2131  2409.8532  208.0326
 2132  2410.8486  208.2456
 2133  2411.8448  208.8845
 2134  2412.8418  208.3668
 2135  2413.8397  208.5342
 2136  2414.8384  209.1540
 2137  2415.8380  209.0569
 2138  2416.8384  209.3761
 2139  2417.8396  209.7476
 2140  2418.8417  209.1116
 2141  2419.8446  209.8526
 2142  2420.8483  211.1464
 2143  2421.8529  211.3836
 2144  2422.8583  211.5642
 2145  2446.2045  214.2186
 2146  2447.2290  215.6231
 2147  2448.2543  215.7604
 2148  2449.2805  215.6645
 2149  2450.3075  215.9195
 2150  2451.3353  216.2870
 2151  2452.3640  216.8276
 2152  2453.3935  217.0373
 2153  2454.4239  217.2218
 2154  2455.4552  217.2093
 2155  2456.4872  216.5418
 2156  2457.5202  216.3491
 2157  2458.5539  216.9729
 2158  2459.5886  216.6527
 2159  2460.6240  217.0887
 2160  2461.6604  217.6960
 2161  2462.6976  215.4654
 2162  2463.7356  214.8749
 2163  2464.7745  217.1370
 2164  2465.8142  216.2850
 2165  2466.8549  209.6224
 2166  2467.8963  205.8642
 2167  2468.9386  212.2417
 2168  2469.9818  217.6736
 2169  2471.0259  218.8539
 2170  2472.0708  217.3833
 2171  2473.1165  217.5575
 2172  2474.1632  219.7709
 2173  2475.2107  219.6459
 2174  2476.2590  219.2445
 2175  2477.3083  219.8412
 2176  2478.3583  219.4223
 2177  2479.4093  219.3898
 2178  2480.4611  220.6287
 2179  2481.5138  221.1435
 2180  2482.5674  221.0258
 2181  2483.6218  220.5698
 2182  2484.6772  220.8039
 2183  2485.7333  220.9536
 2184  2486.7904  220.4829
 2185  2487.8483  220.7017
 2186  2488.9072  220.6108
 2187  2489.9668  219.5708
 2188  2491.0274  220.2982
 2189  2492.0889  221.8450
 2190  2493.1512  221.9958
 2191  2494.2144  222.0798
 2192  2495.2785  221.8894
 2193  2496.3434  221.8899
 2194  2497.4093  222.1681
 2195  2498.4760  221.3422
 2196  2499.5437  219.4647
 2197  2500.6122  219.1719
 2198  2501.6816  220.3531
 2199  2502.7519  221.2275
 2200  2503.8230  222.5330
 2201  2504.8951  222.4925
 2202  2505.9681  221.0283
 2203  2507.0419  219.9847
 2204  2508.1167  219.0298
 2205  2509.1923  219.9915
 2206  2510.2688  222.2576
 2207  2511.3463  221.5279
 2208  2512.4246  220.4198
 2209  2513.5038  222.6653
 2210  2514.5839  224.1884
 2211  2515.6650  222.6385
 2212  2516.7469  223.4432
 2213  2517.8297  224.1262
 2214  2518.9134  222.3092
 2215  2519.9981  223.1804
 2216  2521.0836  225.1078
 2217  2522.1700  225.6816
 2218  2523.2574  226.0288
 2219  2524.3457  226.1000
 2220  2525.4348  225.9134
 2221  2526.5249  226.1819
 2222  2527.6159  226.6079
 2223  2528.7078  226.7053
 2224  2529.8006  225.9732
 2225  2530.8943  225.2718
 2226  2531.9890  226.1874
 2227  2533.0845  227.0415
 2228  2534.1810  226.8253
 2229  2535.2784  226.7116
 2230  2536.3767  226.9597
 2231  2537.4759  227.3625
 2232  2538.5760  227.5982
 2233  2539.6771  227.5273
 2234  2540.7791  226.9248
 2235  2541.8820  226.5702
 2236  2542.9858  227.1007
 2237  2544.0906  227.4482
 2238  2545.1963  227.7265
 2239  2546.3029  227.9811
 2240  2547.4105  228.0823
 2241  2548.5189  228.1562
 2242  2549.6283  228.5445
 2243  2550.7387  228.8239
 2244  2551.8500  228.7187
 2245  2552.9622  228.7655
 2246  2554.0753  228.9974
 2247  2555.1894  227.7124
 2248  2556.3044  225.1756
 2249  2557.4203  224.8344
 2250  2558.5372  227.0141
 2251  2559.6550  227.7769
 2252  2560.7738  228.4740
 2253  2561.8935  229.1863
 2254  2563.0142  228.3536
 2255  2564.1358  227.8655
 2256  2565.2583  227.5313
 2257  2566.3818  227.7237
 2258  2567.5062  228.3491
 2259  2568.6316  228.8364
 2260  2569.7579  228.1087
 2261  2541.9095  226.4829
 2262  2542.9141  227.1194
 2263  2543.9195  227.3842
 2264  2544.9258  227.6506
 2265  2545.9328  227.9399
 2266  2546.9408  228.1059
 2267  2547.9495  228.0155
 2268  2548.9590  228.2768
 2269  2549.9694  228.6984
 2270  2550.9806  228.8387
 2271  2551.9927  228.6979
 2272  2553.0055  228.7542
 2273  2554.0192  229.0579
 2274  2555.0338  228.2111
 2275  2556.0491  225.4453
 2276  2557.0653  224.3565
 2277  2558.0823  226.3956
 2278  2559.1002  227.5343
 2279  2560.1189  227.8162
 2280  2561.1384  229.0309
 2281  2562.1588  229.0789
 2282  2563.1800  228.2825
 2283  2564.2020  227.8020
 2284  2565.2249  227.5070
 2285  2566.2486  227.6393
 2286  2567.2732  228.1649
 2287  2568.2986  228.8144
 2288  2569.3249  228.7513
 2289  2570.3519  227.1856
 2290  2571.3799  226.4602
 2291  2572.4087  227.8051
 2292  2573.4383  229.9000
 2293  2574.4688  229.8398
 2294  2575.5001  229.5095
 2295  2576.5323  229.5178
 2296  2577.5653  229.7811
 2297  2578.5992  230.5836
 2298  2579.6339  230.6034
 2299  2580.6695  229.6754
 2300  2581.7059  228.0646
 2301  2582.7432  228.5746
 2302  2583.7814  229.0557
 2303  2584.8204  227.0572
 2304  2585.8602  222.3676
 2305  2586.9009  224.9976
 2306  2587.9425  229.8545
 2307  2588.9849  230.7208
 2308  2590.0282  232.0740
 2309  2591.0724  231.9940
 2310  2592.1174  231.7753
 2311  2593.1633  232.0886
 2312  2594.2101  232.0649
 2313  2595.2577  232.0905
 2314  2596.3062  232.4342
 2315  2597.3555  232.5306
 2316  2598.4057  232.8404
 2317  2599.4568  233.0074
 2318  2600.5088  232.9017
 2319  2601.5616  232.8221
 2320  2602.6153  232.9591
 2321  2603.6699  233.0408
 2322  2604.7253  232.9510
 2323  2605.7817  232.9846
 2324  2606.8389  232.8037
 2325  2607.8969  232.9554
 2326  2608.9559  233.5577
 2327  2610.0157  233.7964
 2328  2611.0764  233.8592
 2329  2612.1380  233.9560
 2330  2613.2005  234.1121
 2331  2614.2638  234.2067
 2332  2615.3281  234.1931
 2333  2616.3932  234.2363
 2334  2617.4592  234.4252
 2335  2618.5261  234.4881
 2336  2619.5939  234.5357
 2337  2620.6626  234.5487
 2338  2621.7321  234.6594
 2339  2622.8026  234.8461
 2340  2623.8739  234.9502
 2341  2624.9461  235.1211
 2342  2626.0193  235.2951
 2343  2627.0933  235.3591
 2344  2628.1682  235.4208
 2345  2629.2440  235.4590
 2346  2630.3207  235.4624
 2347  2631.3983  235.5812
 2348  2632.4768  235.8412
 2349  2633.5562  236.0422
 2350  2634.6365  236.1059
 2351  2635.7177  236.2836
 2352  2636.7998  236.5139
 2353  2637.8828  236.7046
 2354  2638.9668  236.8662
 2355  2640.0516  237.0384
 2356  2641.1373  237.2236
 2357  2642.2239  237.3171
 2358  2643.3115  237.3334
 2359  2644.3999  237.5396
 2360  2645.4893  237.8488
 2361  2646.5796  238.0495
 2362  2647.6708  238.2569
 2363  2648.7628  238.4916
 2364  2649.8559  238.6927
 2365  2650.9498  238.8955
 2366  2652.0446  238.9712
 2367  2653.1404  238.9749
 2368  2654.2371  239.2707
 2369  2655.3347  239.6744
 2370  2656.4332  239.8621
 2371  2657.5326  239.7740
 2372  2658.6330  239.8970
 2373  2659.7343  240.3915
 2374  2660.8365  240.6554
 2375  2661.9396  240.8624
 2376  2663.0437  241.0265
 2377  2664.1487  241.0402
 2378  2665.2546  241.3421
 2379   649.3836   15.4917
 2380   682.2507   17.0210
 2381   682.5056   17.0342
 2382   682.7606   17.0475
 2383   683.0155   17.0607
 2384   683.2704   17.0740
 2385   683.5253   17.0872
 2386   683.7802   17.1005
 2387   684.0352   17.1138
 2388   684.2901   17.1271
 2389   684.5450   17.1404
 2390   684.7999   17.1538
 2391   685.0548   17.1671
 2392   685.3097   17.1805
 2393   685.5647   17.1938
 2394   685.8196   17.2072
 2395   686.0745   17.2206
 2396   686.3294   17.2340
 2397   686.5843   17.2475
 2398   686.8392   17.2609
 2399   687.0941   17.2743
 2400   687.3491   17.2878
 2401   728.7450   19.5091
 2402   727.7557   19.4570
 2403   782.2206   22.4022
 2404   782.5561   22.4214
 2405   782.8916   22.4407
 2406   783.2271   22.4600
 2407   783.5626   22.4793
 2408   783.8981   22.4986
 2409   784.2336   22.5179
 2410   784.5691   22.5373
 2411   784.9046   22.5566
 2412   785.2401   22.5760
 2413   785.5757   22.5954
 2414   785.9112   22.6148
 2415   786.2467   22.6342
 2416   786.5822   22.6537
 2417   786.9177   22.6731
 2418   787.2532   22.6926
 2419   787.5887   22.7121
 2420   787.9242   22.7315
 2421   788.2597   22.7511
 2422   788.5952   22.7706
 2423   788.9307   22.7901
 2424   852.8379   26.6784
 2425   851.1865   26.5751
 2426   904.1201   29.9829
 2427   904.4590   30.0056
 2428   904.7980   30.0283
 2429   905.1370   30.0510
 2430   905.4760   30.0738
 2431   905.8150   30.0965
 2432   906.1540   30.1193
 2433   906.4930   30.1421
 2434   906.8320   30.1649
 2435   907.1710   30.1877
 2436   907.5100   30.2105
 2437   907.8490   30.2333
 2438   908.1880   30.2562
 2439   908.5270   30.2790
 2440   908.8660   30.3019
 2441   909.2050   30.3248
 2442   909.5440   30.3477
 2443   909.8830   30.3706
 2444   910.2220   30.3936
 2445   910.5610   30.4165
 2446   910.9000   30.4395
 2447   974.7043   34.9692
 2448   973.4158   34.8745
 2449  1046.6498   40.3661
 2450  1047.0989   40.4004
 2451  1047.5479   40.4346
 2452  1047.9970   40.4689
 2453  1048.4461   40.5032
 2454  1048.8951   40.5375
 2455  1049.3442   40.5718
 2456  1049.7932   40.6061
 2457  1050.2423   40.6404
 2458  1050.6914   40.6747
 2459  1051.1404   40.7091
 2460  1051.5895   40.7434
 2461  1052.0386   40.7778
 2462  1052.4876   40.8121
 2463  1052.9367   40.8465
 2464  1053.3858   40.8809
 2465  1053.8348   40.9152
 2466  1054.2839   40.9496
 2467  1054.7329   40.9840
 2468  1055.1820   41.0184
 2469  1055.6311   41.0528
 2470  1137.1608   47.4328
 2471  1137.6824   47.4745
 2472  1138.2041   47.5162
 2473  1138.7258   47.5579
 2474  1139.2475   47.5996
 2475  1139.7692   47.6413
 2476  1140.2909   47.6830
 2477  1140.8126   47.7247
 2478  1141.3342   47.7665
 2479  1141.8559   47.8082
 2480  1142.3776   47.8500
 2481  1142.8993   47.8917
 2482  1143.4210   47.9335
 2483  1143.9427   47.9753
 2484  1144.4644   48.0171
 2485  1144.9860   48.0589
 2486  1145.5077   48.1007
 2487  1146.0294   48.1425
 2488  1146.5511   48.1843
 2489  1147.0728   48.2262
 2490  1147.5945   48.2680
 2491  1148.1162   48.3099
 2492  1148.6378   48.3517
 2493  1149.1595   48.3936
 2494  1149.6812   48.4355
 2495  1150.2029   48.4774
 2496  1150.7246   48.5193
 2497  1151.2463   48.5612
 2498  1151.7680   48.6031
 2499  1152.2897   48.6450
 2500  1152.8113   48.6869
 2501  1153.3330   48.7289
 2502  1153.8547   48.7708
 2503  1154.3764   48.8128
 2504  1154.8981   48.8547
 2505  1155.4198   48.8967
 2506  1155.9415   48.9387
 2507  1156.4631   48.9807
 2508  1156.9848   49.0226
 2509  1157.5065   49.0647
 2510  1158.0282   49.1067
 2511  1158.5499   49.1487
 2512  1159.0716   49.1907
 2513  1159.5933   49.2327
 2514  1160.1149   49.2748
 2515  1160.6366   49.3168
 2516  1161.1583   49.3589
 2517  1161.6800   49.4009
 2518  1162.2017   49.4430
 2519  1162.7234   49.4851
 2520  1163.2451   49.5272
 2521  1163.7667   49.5693
 2522  1164.2884   49.6114
 2523  1164.8101   49.6535
 2524  1165.3318   49.6956
 2525  1165.8535   49.7377
 2526  1166.3752   49.7798
 2527  1166.8969   49.8220
 2528  1167.4185   49.8641
 2529  1167.9402   49.9062
 2530  1168.4619   49.9484
 2531  1168.9836   49.9906
 2532  1169.5053   50.0327
 2533  1170.0270   50.0749
 2534  1170.5487   50.1171
 2535  1171.0703   50.1593
 2536  1171.5920   50.2015
 2537  1172.1137   50.2437
 2538  1172.6354   50.2859
 2539  1173.1571   50.3281
 2540  1173.6788   50.3703
 2541  1174.2005   50.4126
 2542  1174.7222   50.4548
 2543  1175.2438   50.4970
 2544  1175.7655   50.5393
 2545  1176.2872   50.5815
 2546  1176.8089   50.6238
 2547  1177.3306   50.6661
 2548  1177.8523   50.7084
 2549  1178.3740   50.7506
 2550  1178.8956   50.7929
 2551  1179.4173   50.8352
 2552  1179.9390   50.8775
 2553  1180.4607   50.9198
 2554  1180.9824   50.9621
 2555  1181.5041   51.0044
 2556  1182.0258   51.0468
 2557  1182.5474   51.0891
 2558  1183.0691   51.1314
 2559  1183.5908   51.1738
 2560  1184.1125   51.2161
 2561  1184.6342   51.2585
 2562  1185.1559   51.3008
 2563  1185.6776   51.3432
 2564  1186.1992   51.3855
 2565  1186.7209   51.4279
 2566  1187.2426   51.4703
 2567  1187.7643   51.5127
 2568  1188.2860   51.5551
 2569  1188.8077   51.5975
 2570  1189.3294   51.6399
 2571  1189.8510   51.6823
 2572  1190.3727   51.7247
 2573  1190.8944   51.7671
 2574  1191.4161   51.8095
 2575  1191.9378   51.8519
 2576  1192.4595   51.8944
 2577  1192.9812   51.9368
 2578  1193.5029   51.9792
 2579  1194.0245   52.0217
 2580  1194.5462   52.0641
 2581  1195.0679   52.1066
 2582  1195.5896   52.1490
 2583  1196.1113   52.1915
 2584  1196.6330   52.2340
 2585  1197.1547   52.2764
 2586  1197.6763   52.3189
 2587  1198.1980   52.3614
 2588  1198.7197   52.4039
 2589  1199.2414   52.4464
 2590  1199.7631   52.4889
 2591  1200.2848   52.5314
 2592  1200.8065   52.5739
 2593  1201.3281   52.6164
 2594  1201.8498   52.6589
 2595  1202.3715   52.7014
 2596  1202.8932   52.7439
 2597  1203.4149   52.7865
 2598  1203.9366   52.8290
 2599  1204.4583   52.8715
 2600  1204.9799   52.9140
 2601  1205.5016   52.9566
 2602  1206.0233   52.9991
 2603  1206.5450   53.0417
 2604  1207.0667   53.0842
 2605  1207.5884   53.1268
 2606  1208.1101   53.1693
 2607  1208.6317   53.2119
 2608  1209.1534   53.2545
 2609  1209.6751   53.2970
 2610  1210.1968   53.3396
 2611  1210.7185   53.3822
 2612  1211.2402   53.4248
 2613  1211.7619   53.4674
 2614  1212.2835   53.5099
 2615  1212.8052   53.5525
 2616  1213.3269   53.5951
 2617  1213.8486   53.6377
 2618  1214.3703   53.6803
 2619  1214.8920   53.7229
 2620  1215.4137   53.7655
 2621  1215.9354   53.8082
 2622  1216.4570   53.8508
 2623  1273.1284   58.4894
 2624  1273.6630   58.5332
 2625  1274.1975   58.5770
 2626  1274.7321   58.6209
 2627  1275.2666   58.6647
 2628  1275.8011   58.7085
 2629  1276.3357   58.7523
 2630  1276.8702   58.7961
 2631  1277.4047   58.8400
 2632  1277.9393   58.8838
 2633  1278.4738   58.9276
 2634  1279.0084   58.9715
 2635  1279.5429   59.0153
 2636  1280.0774   59.0591
 2637  1280.6120   59.1030
 2638  1281.1465   59.1468
 2639  1281.6810   59.1907
 2640  1282.2156   59.2345
 2641  1282.7501   59.2784
 2642  1283.2846   59.3222
 2643  1283.8192   59.3661
 2644  1339.4790   63.9542
 2645  1337.6580   63.8033
 2646  1443.6529   72.7646
 2647  1444.2260   72.8142
 2648  1444.7990   72.8638
 2649  1445.3720   72.9133
 2650  1445.9450   72.9629
 2651  1446.5181   73.0124
 2652  1447.0911   73.0620
 2653  1447.6641   73.1116
 2654  1448.2371   73.1612
 2655  1448.8102   73.2108
 2656  1449.3832   73.2604
 2657  1449.9562   73.3100
 2658  1450.5293   73.3596
 2659  1451.1023   73.4092
 2660  1451.6753   73.4588
 2661  1452.2483   73.5084
 2662  1452.8214   73.5580
 2663  1453.3944   73.6076
 2664  1453.9674   73.6572
 2665  1454.5404   73.7068
 2666  1455.1135   73.7564
 2667  1455.6865   73.8061
 2668  1456.2595   73.8557
 2669  1456.8326   73.9053
 2670  1457.4056   73.9549
 2671  1457.9786   74.0045
 2672  1458.5516   74.0541
 2673  1459.1247   74.1038
 2674  1459.6977   74.1534
 2675  1527.6515   79.9149
 2676  1528.2921   79.9668
 2677  1528.9326   80.0166
 2678  1529.5732   80.0741
 2679  1530.2137   80.1275
 2680  1530.8543   80.1733
 2681  1531.4949   80.2247
 2682  1532.1354   80.2654
 2683  1532.7760   80.2875
 2684  1533.4165   80.3185
 2685  1534.0571   80.3600
 2686  1534.6977   80.4047
 2687  1535.3382   80.4365
 2688  1535.9788   80.4607
 2689  1536.6193   80.4756
 2690  1537.2599   80.4684
 2691  1537.9004   80.4760
 2692  1538.5410   80.5102
 2693  1539.1816   80.5521
 2694  1539.8221   80.5932
 2695  1540.4627   80.6494
 2696  1614.6075   87.4482
 2697  2165.8771  156.4020
 2698  2166.7452  156.6515
 2699  2167.6133  159.4383
 2700  2168.4815  159.9686
 2701  2169.3496  157.5302
 2702  2170.2177  158.4964
 2703  2171.0858  160.4129
 2704  2171.9539  158.7657
 2705  2172.8220  157.7893
 2706  2173.6901  158.7671
 2707  2174.5582  160.7773
 2708  2175.4264  159.3707
 2709  2176.2945  157.7728
 2710  2177.1626  160.3682
 2711  2178.0307  160.7102
 2712  2178.8988  158.3635
 2713  2179.7669  158.5629
 2714  2180.6350  159.5002
 2715  2326.0966  187.6263
 2716  2298.9026  182.0555
 2717  2423.8313  211.6524
 2718  2424.8041  211.6970
 2719  2425.7768  211.9979
 2720  2426.7496  212.3367
 2721  2427.7223  212.5709
 2722  2428.6951  212.8346
 2723  2429.6678  213.0591
 2724  2430.6405  213.2274
 2725  2431.6133  212.1253
 2726  2432.5860  211.3254
 2727  2433.5588  212.7669
 2728  2434.5315  213.9949
 2729  2435.5043  214.2786
 2730  2436.4770  214.5168
 2731  2437.4498  214.0928
 2732  2438.4225  214.1222
 2733  2439.3953  214.9246
 2734  2440.3680  215.1551
 2735  2441.3408  215.3045
 2736  2442.3135  215.4301
 2737  2443.2863  215.3991
 2738  2444.2590  215.4994
 2739  2445.2318  214.5051
 2740  2570.8842  226.6731
 2741  2540.9049  226.8287
 2742  2666.3478  241.6070
 2743  2667.4409  241.7519
 2744  2668.5341  241.2049
 2745  2669.6272  239.8033
 2746  2670.7204  240.6487
 2747  2671.8135  240.9745
 2748  2672.9067  238.8992
 2749  2673.9999  239.1594
 2750  2675.0930  241.5451
 2751  2676.1862  242.7138
 2752  2677.2793  243.3321
 2753  2678.3725  244.0916
 2754  2679.4656  244.4245
 2755  2680.5588  244.4802
 2756  2681.6519  244.5897
 2757  2682.7451  244.8692
 2758  2683.8382  244.7878
 2759  2684.9314  244.4148
 2760  2686.0245  244.1574
 2761  2687.1177  244.6476
 2762  2688.2109  244.9517
 2763  2689.3040  244.9180
 2764  2690.3972  244.8094
 2765  2691.4903  243.6740
 2766  2692.5835  244.4648
 2767  2693.6766  246.1239
 2768  2694.7698  246.2328
 2769  2695.8629  245.8635
 2770  2696.9561  246.0250
 2771  2698.0492  246.4077
 2772  2699.1424  246.8737
 2773  2700.2356  247.3660
 2774  2701.3287  247.4702
 2775  2702.4219  246.4304
 2776  2703.5150  242.7111
 2777  2704.6082  243.1870
 2778  2705.7013  247.1293
 2779  2706.7945  248.2002
 2780  2707.8876  248.4508
 2781  2708.9808  248.7301
 2782  2710.0739  249.0140
 2783  2711.1671  249.1490
 2784  2712.2602  249.1486
 2785  2713.3534  249.0060
 2786  2714.4466  246.4230
 2787  2715.5397  244.3646
 2788  2716.6329  246.5297
 2789  2717.7260  245.6217
 2790  2718.8192  244.9845
 2791  2719.9123  248.0024
 2792  2721.0055  250.0300
 2793  2722.0986  250.1030
 2794  2723.1918  248.7470
 2795  2724.2849  248.7669
 2796  2725.3781  249.8445
 2797  2726.4712  249.8511
 2798  2727.5644  250.3000
 2799  2728.6576  250.6638
 2800  2729.7507  250.7676
 2801  2730.8439  250.9213
 2802  2731.9370  250.5126
 2803  2733.0302  249.4822
 2804  2734.1233  250.3804
 2805  2735.2165  251.7617
 2806  2736.3096  251.9294
 2807  2737.4028  251.9920
 2808  2738.4959  252.0968
 2809  2739.5891  252.2083
 2810  2740.6822  252.1493
 2811  2741.7754  252.3168
 2812  2742.8686  252.1266
 2813  2743.9617  252.0049
 2814  2745.0549  252.0677
 2815  2746.1480  250.1167
 2816  2747.2412  250.2897
 2817  2748.3343  252.3193
 2818  2749.4275  252.9134
 2819  2750.5206  253.3019
 2820  2751.6138  253.6312
 2821  2752.7069  253.8808
 2822  2753.8001  253.4670
 2823  2754.8933  253.5928
 2824  2755.9864  254.4119
 2825  2757.0796  254.6507
 2826  2758.1727  254.5531
 2827  2759.2659  254.2662
 2828  2760.3590  254.5669
 2829  2761.4522  255.1129
 2830  2762.5453  255.2983
 2831  2763.6385  255.3895
 2832  2764.7316  255.5325
 2833  2765.8248  255.5975
 2834  2766.9179  255.6905
