! AIRS solar data file for AIRS SRF 08 Apr 2008 m130x
!     Tef = 155.770 K, yoffset = -13.0 um
! Data for 649-1614 cm-1 comes from M.P. Thekaekara, 1973 Solar
! Energy v.14 p.109-127 (supplied to us by Chris Barnet).  The ~80
! cm-1 point spacing data has been interpolated to the AIRS
! channel freqs and converted to W/(m2.sr.cm-1).
!
! Data for 2181-2665 cm-1 comes from ATMOS Solar Spectra, and was
! supplied to us by ATMOS Principal Investigator Michael Gunson.
! In particular we used the file "atmos_corrected_solar.mat".
! This data was then directly convolved with the estimated AIRS
! SRFs for each channel to approximate the effective AIRS solar.
!
!chan   frequency    solar
!---- ----------- --------
    1   649.6172   15.5010
    2   649.8556   15.5109
    3   650.0943   15.5211
    4   650.3331   15.5310
    5   650.5721   15.5406
    6   650.8113   15.5503
    7   651.0506   15.5605
    8   651.2902   15.5708
    9   651.5299   15.5807
   10   651.7699   15.5904
   11   652.0100   15.6003
   12   652.2503   15.6108
   13   652.4908   15.6210
   14   652.7315   15.6309
   15   652.9724   15.6407
   16   653.2135   15.6510
   17   653.4547   15.6615
   18   653.6962   15.6718
   19   653.9378   15.6818
   20   654.1797   15.6918
   21   654.4217   15.7023
   22   654.6639   15.7129
   23   654.9063   15.7232
   24   655.1489   15.7333
   25   655.3917   15.7436
   26   655.6347   15.7543
   27   655.8779   15.7649
   28   656.1212   15.7752
   29   656.3648   15.7855
   30   656.6086   15.7961
   31   656.8525   15.8069
   32   657.0966   15.8175
   33   657.3410   15.8279
   34   657.5855   15.8384
   35   657.8302   15.8493
   36   658.0751   15.8601
   37   658.3202   15.8708
   38   658.5655   15.8814
   39   658.8110   15.8921
   40   659.0567   15.9031
   41   659.3026   15.9140
   42   659.5487   15.9248
   43   659.7949   15.9356
   44   660.0414   15.9466
   45   660.2881   15.9577
   46   660.5349   15.9687
   47   660.7820   15.9796
   48   661.0292   15.9906
   49   661.2767   16.0018
   50   661.5243   16.0130
   51   661.7722   16.0240
   52   662.0202   16.0351
   53   662.2684   16.0464
   54   662.5169   16.0577
   55   662.7655   16.0690
   56   663.0143   16.0802
   57   663.2634   16.0915
   58   663.5126   16.1030
   59   663.7620   16.1144
   60   664.0116   16.1258
   61   664.2614   16.1372
   62   664.5115   16.1487
   63   664.7617   16.1603
   64   665.0121   16.1719
   65   665.2627   16.1834
   66   665.5135   16.1950
   67   665.7645   16.2068
   68   666.0158   16.2185
   69   666.2672   16.2302
   70   666.5188   16.2419
   71   666.7706   16.2537
   72   667.0226   16.2656
   73   667.2748   16.2775
   74   667.5273   16.2893
   75   667.7799   16.3013
   76   668.0327   16.3133
   77   668.2857   16.3253
   78   668.5390   16.3373
   79   668.7924   16.3494
   80   669.0460   16.3615
   81   669.2998   16.3737
   82   669.5539   16.3859
   83   669.8081   16.3980
   84   670.0626   16.4103
   85   670.3172   16.4225
   86   670.5721   16.4349
   87   670.8271   16.4473
   88   671.0824   16.4596
   89   671.3379   16.4719
   90   671.5935   16.4844
   91   671.8494   16.4969
   92   672.1055   16.5094
   93   672.3618   16.5219
   94   672.6183   16.5345
   95   672.8749   16.5472
   96   673.1318   16.5598
   97   673.3890   16.5724
   98   673.6463   16.5851
   99   673.9038   16.5978
  100   674.1615   16.6107
  101   674.4194   16.6235
  102   674.6776   16.6362
  103   674.9359   16.6491
  104   675.1945   16.6620
  105   675.4532   16.6749
  106   675.7122   16.6878
  107   675.9714   16.7008
  108   676.2308   16.7139
  109   676.4904   16.7269
  110   676.7502   16.7400
  111   677.0102   16.7530
  112   677.2704   16.7661
  113   677.5309   16.7794
  114   677.7915   16.7926
  115   678.0524   16.8057
  116   678.3134   16.8190
  117   678.5747   16.8323
  118   678.8362   16.8457
  119   679.0979   16.8589
  120   679.3598   16.8723
  121   679.6219   16.8857
  122   679.8842   16.8991
  123   680.1468   16.9126
  124   680.4095   16.9260
  125   680.6725   16.9396
  126   680.9356   16.9531
  127   681.1990   16.9667
  128   681.4626   16.9803
  129   681.7265   16.9939
  130   681.9905   17.0075
  131   687.5986   17.3010
  132   687.8679   17.3152
  133   688.1374   17.3295
  134   688.4071   17.3438
  135   688.6770   17.3581
  136   688.9472   17.3724
  137   689.2176   17.3867
  138   689.4882   17.4012
  139   689.7590   17.4157
  140   690.0300   17.4300
  141   690.3013   17.4444
  142   690.5728   17.4589
  143   690.8445   17.4734
  144   691.1164   17.4880
  145   691.3885   17.5024
  146   691.6609   17.5170
  147   691.9335   17.5318
  148   692.2063   17.5463
  149   692.4793   17.5608
  150   692.7525   17.5755
  151   693.0260   17.5903
  152   693.2997   17.6049
  153   693.5736   17.6196
  154   693.8478   17.6343
  155   694.1221   17.6491
  156   694.3967   17.6639
  157   694.6715   17.6786
  158   694.9465   17.6934
  159   695.2218   17.7083
  160   695.4973   17.7232
  161   695.7730   17.7380
  162   696.0489   17.7529
  163   696.3251   17.7678
  164   696.6015   17.7828
  165   696.8781   17.7977
  166   697.1549   17.8126
  167   697.4320   17.8276
  168   697.7093   17.8426
  169   697.9868   17.8576
  170   698.2645   17.8727
  171   698.5425   17.8877
  172   698.8207   17.9028
  173   699.0991   17.9179
  174   699.3778   17.9330
  175   699.6567   17.9481
  176   699.9358   17.9632
  177   700.2151   17.9784
  178   700.4947   17.9935
  179   700.7745   18.0087
  180   701.0545   18.0239
  181   701.3347   18.0391
  182   701.6152   18.0543
  183   701.8959   18.0696
  184   702.1769   18.0848
  185   702.4580   18.1001
  186   702.7395   18.1154
  187   703.0211   18.1307
  188   703.3030   18.1460
  189   703.5851   18.1613
  190   703.8674   18.1766
  191   704.1499   18.1920
  192   704.4328   18.2074
  193   704.7158   18.2227
  194   704.9990   18.2380
  195   705.2825   18.2534
  196   705.5662   18.2689
  197   705.8502   18.2843
  198   706.1344   18.2997
  199   706.4188   18.3151
  200   706.7035   18.3306
  201   706.9884   18.3461
  202   707.2735   18.3615
  203   707.5589   18.3770
  204   707.8445   18.3925
  205   708.1303   18.4080
  206   708.4164   18.4235
  207   708.7027   18.4390
  208   708.9892   18.4546
  209   709.2760   18.4701
  210   709.5630   18.4856
  211   709.8503   18.5012
  212   710.1378   18.5167
  213   710.4255   18.5324
  214   710.7135   18.5479
  215   711.0017   18.5634
  216   711.2901   18.5791
  217   711.5788   18.5947
  218   711.8677   18.6103
  219   712.1569   18.6258
  220   712.4463   18.6415
  221   712.7359   18.6572
  222   713.0258   18.6727
  223   713.3159   18.6883
  224   713.6063   18.7040
  225   713.8969   18.7197
  226   714.1877   18.7352
  227   714.4788   18.7509
  228   714.7701   18.7666
  229   715.0617   18.7823
  230   715.3535   18.7979
  231   715.6455   18.8135
  232   715.9378   18.8293
  233   716.2304   18.8449
  234   716.5231   18.8605
  235   716.8161   18.8762
  236   717.1094   18.8920
  237   717.4029   18.9077
  238   717.6966   18.9233
  239   717.9906   18.9390
  240   718.2849   18.9547
  241   718.5794   18.9705
  242   718.8741   18.9861
  243   719.1690   19.0018
  244   719.4643   19.0176
  245   719.7597   19.0334
  246   720.0554   19.0490
  247   720.3514   19.0647
  248   720.6476   19.0806
  249   720.9440   19.0964
  250   721.2407   19.1120
  251   721.5377   19.1278
  252   721.8349   19.1438
  253   722.1323   19.1595
  254   722.4300   19.1750
  255   722.7279   19.1909
  256   723.0261   19.2070
  257   723.3245   19.2227
  258   723.6232   19.2382
  259   723.9222   19.2542
  260   724.2213   19.2704
  261   724.5208   19.2859
  262   724.8204   19.3014
  263   725.1204   19.3177
  264   725.4205   19.3339
  265   725.7210   19.3493
  266   726.0217   19.3650
  267   726.3226   19.3814
  268   726.6238   19.3974
  269   726.9252   19.4128
  270   727.2269   19.4288
  271   727.5289   19.4453
  272   727.8310   19.4611
  273   728.1335   19.4765
  274   728.4362   19.4927
  275   728.0520   19.4725
  276   728.3544   19.4885
  277   728.6570   19.5046
  278   728.9598   19.5205
  279   729.2630   19.5364
  280   729.5663   19.5524
  281   729.8700   19.5686
  282   730.1738   19.5845
  283   730.4780   19.6004
  284   730.7823   19.6165
  285   731.0870   19.6326
  286   731.3918   19.6487
  287   731.6970   19.6646
  288   732.0024   19.6807
  289   732.3080   19.6969
  290   732.6139   19.7131
  291   732.9200   19.7290
  292   733.2264   19.7451
  293   733.5331   19.7613
  294   733.8400   19.7775
  295   734.1471   19.7935
  296   734.4546   19.8097
  297   734.7622   19.8261
  298   735.0702   19.8423
  299   735.3783   19.8582
  300   735.6868   19.8745
  301   735.9955   19.8909
  302   736.3044   19.9071
  303   736.6136   19.9232
  304   736.9231   19.9395
  305   737.2328   19.9560
  306   737.5428   19.9722
  307   737.8531   19.9884
  308   738.1636   20.0048
  309   738.4743   20.0213
  310   738.7853   20.0376
  311   739.0966   20.0538
  312   739.4081   20.0703
  313   739.7199   20.0868
  314   740.0320   20.1032
  315   740.3443   20.1194
  316   740.6569   20.1360
  317   740.9697   20.1526
  318   741.2828   20.1691
  319   741.5962   20.1854
  320   741.9098   20.2020
  321   742.2237   20.2187
  322   742.5378   20.2351
  323   742.8522   20.2516
  324   743.1669   20.2682
  325   743.4818   20.2850
  326   743.7970   20.3015
  327   744.1125   20.3180
  328   744.4282   20.3348
  329   744.7442   20.3516
  330   745.0604   20.3681
  331   745.3769   20.3848
  332   745.6937   20.4017
  333   746.0108   20.4185
  334   746.3281   20.4351
  335   746.6457   20.4519
  336   746.9635   20.4689
  337   747.2816   20.4856
  338   747.6000   20.5023
  339   747.9186   20.5193
  340   748.2376   20.5363
  341   748.5567   20.5531
  342   748.8762   20.5699
  343   749.1959   20.5871
  344   749.5159   20.6040
  345   749.8361   20.6209
  346   750.1567   20.6379
  347   750.4775   20.6551
  348   750.7985   20.6721
  349   751.1199   20.6890
  350   751.4414   20.7062
  351   751.7633   20.7235
  352   752.0855   20.7405
  353   752.4079   20.7576
  354   752.7306   20.7750
  355   753.0535   20.7922
  356   753.3768   20.8094
  357   753.7003   20.8266
  358   754.0240   20.8440
  359   754.3481   20.8613
  360   754.6724   20.8785
  361   754.9970   20.8959
  362   755.3219   20.9134
  363   755.6470   20.9308
  364   755.9724   20.9481
  365   756.2981   20.9656
  366   756.6241   20.9833
  367   756.9503   21.0006
  368   757.2768   21.0181
  369   757.6036   21.0358
  370   757.9307   21.0534
  371   758.2581   21.0709
  372   758.5857   21.0886
  373   758.9136   21.1064
  374   759.2417   21.1239
  375   759.5702   21.1416
  376   759.8989   21.1596
  377   760.2279   21.1773
  378   760.5572   21.1951
  379   760.8868   21.2129
  380   761.2167   21.2308
  381   761.5468   21.2487
  382   761.8772   21.2666
  383   762.2079   21.2846
  384   762.5389   21.3026
  385   762.8701   21.3205
  386   763.2016   21.3386
  387   763.5334   21.3566
  388   763.8655   21.3748
  389   764.1979   21.3930
  390   764.5306   21.4111
  391   764.8635   21.4293
  392   765.1967   21.4476
  393   765.5303   21.4658
  394   765.8640   21.4840
  395   766.1981   21.5025
  396   766.5325   21.5208
  397   766.8671   21.5391
  398   767.2020   21.5576
  399   767.5373   21.5761
  400   767.8728   21.5946
  401   768.2085   21.6130
  402   768.5446   21.6317
  403   768.8810   21.6503
  404   769.2176   21.6688
  405   769.5546   21.6876
  406   769.8918   21.7064
  407   770.2293   21.7249
  408   770.5671   21.7436
  409   770.9052   21.7628
  410   771.2435   21.7815
  411   771.5822   21.8000
  412   771.9212   21.8192
  413   772.2604   21.8384
  414   772.5999   21.8569
  415   772.9397   21.8759
  416   773.2799   21.8954
  417   773.6203   21.9145
  418   773.9610   21.9331
  419   774.3019   21.9523
  420   774.6432   21.9720
  421   774.9848   21.9910
  422   775.3266   22.0099
  423   775.6688   22.0296
  424   776.0112   22.0491
  425   776.3540   22.0679
  426   776.6970   22.0874
  427   777.0403   22.1074
  428   777.3840   22.1263
  429   777.7279   22.1457
  430   778.0721   22.1656
  431   778.4166   22.1853
  432   778.7614   22.2044
  433   779.1065   22.2241
  434   779.4519   22.2442
  435   779.7976   22.2636
  436   780.1436   22.2831
  437   780.4899   22.3033
  438   780.8365   22.3233
  439   781.1834   22.3426
  440   781.5306   22.3625
  441   781.8780   22.3828
  442   789.2592   22.8093
  443   789.6129   22.8299
  444   789.9670   22.8505
  445   790.3213   22.8713
  446   790.6760   22.8920
  447   791.0310   22.9126
  448   791.3863   22.9335
  449   791.7418   22.9543
  450   792.0977   22.9751
  451   792.4539   22.9961
  452   792.8104   23.0171
  453   793.1672   23.0379
  454   793.5243   23.0590
  455   793.8818   23.0801
  456   794.2395   23.1010
  457   794.5975   23.1220
  458   794.9559   23.1434
  459   795.3146   23.1644
  460   795.6735   23.1856
  461   796.0328   23.2068
  462   796.3924   23.2280
  463   796.7523   23.2494
  464   797.1125   23.2705
  465   797.4730   23.2921
  466   797.8339   23.3135
  467   798.1950   23.3347
  468   798.5565   23.3561
  469   798.9182   23.3779
  470   799.2803   23.3992
  471   799.6427   23.4206
  472   800.0054   23.4424
  473   800.3685   23.4640
  474   800.7318   23.4854
  475   801.0955   23.5073
  476   801.4595   23.5291
  477   801.8237   23.5505
  478   802.1884   23.5723
  479   802.5533   23.5944
  480   802.9185   23.6160
  481   803.2841   23.6377
  482   803.6499   23.6601
  483   804.0161   23.6819
  484   804.3827   23.7034
  485   804.7495   23.7257
  486   805.1166   23.7480
  487   805.4841   23.7696
  488   805.8519   23.7915
  489   806.2200   23.8142
  490   806.5884   23.8362
  491   806.9572   23.8579
  492   807.3263   23.8806
  493   807.6956   23.9030
  494   808.0654   23.9247
  495   808.4354   23.9472
  496   808.8058   23.9699
  497   809.1764   23.9917
  498   809.5474   24.0141
  499   809.9188   24.0371
  500   810.2904   24.0592
  501   810.6624   24.0813
  502   811.0347   24.1043
  503   811.4073   24.1271
  504   811.7803   24.1490
  505   812.1536   24.1718
  506   812.5272   24.1949
  507   812.9011   24.2171
  508   813.2754   24.2396
  509   813.6500   24.2630
  510   814.0249   24.2853
  511   814.4001   24.3078
  512   814.7757   24.3311
  513   815.1516   24.3540
  514   815.5278   24.3764
  515   815.9044   24.3995
  516   816.2813   24.4229
  517   816.6585   24.4453
  518   817.0361   24.4682
  519   817.4140   24.4919
  520   817.7922   24.5146
  521   818.1707   24.5372
  522   818.5496   24.5611
  523   818.9288   24.5840
  524   819.3084   24.6067
  525   819.6883   24.6304
  526   820.0685   24.6538
  527   820.4490   24.6765
  528   820.8299   24.6999
  529   821.2111   24.7237
  530   821.5927   24.7464
  531   821.9746   24.7699
  532   822.3568   24.7937
  533   822.7394   24.8168
  534   823.1223   24.8401
  535   823.5055   24.8641
  536   823.8891   24.8874
  537   824.2730   24.9104
  538   824.6572   24.9347
  539   825.0419   24.9583
  540   825.4268   24.9813
  541   825.8121   25.0053
  542   826.1977   25.0291
  543   826.5836   25.0523
  544   826.9699   25.0765
  545   827.3566   25.1004
  546   827.7435   25.1237
  547   828.1308   25.1477
  548   828.5185   25.1718
  549   828.9065   25.1953
  550   829.2949   25.2193
  551   829.6836   25.2434
  552   830.0726   25.2672
  553   830.4620   25.2911
  554   830.8517   25.3153
  555   831.2418   25.3392
  556   831.6322   25.3631
  557   832.0230   25.3875
  558   832.4141   25.4115
  559   832.8055   25.4355
  560   833.1973   25.4598
  561   833.5895   25.4840
  562   833.9820   25.5081
  563   834.3749   25.5324
  564   834.7681   25.5567
  565   835.1616   25.5809
  566   835.5555   25.6052
  567   835.9497   25.6297
  568   836.3443   25.6541
  569   836.7393   25.6783
  570   837.1346   25.7029
  571   837.5303   25.7273
  572   837.9263   25.7517
  573   838.3226   25.7763
  574   838.7193   25.8009
  575   839.1164   25.8252
  576   839.5138   25.8501
  577   839.9116   25.8747
  578   840.3097   25.8990
  579   840.7082   25.9240
  580   841.1071   25.9488
  581   841.5063   25.9731
  582   841.9058   25.9982
  583   842.3057   26.0231
  584   842.7060   26.0475
  585   843.1066   26.0727
  586   843.5076   26.0976
  587   843.9089   26.1221
  588   844.3107   26.1474
  589   844.7127   26.1724
  590   845.1151   26.1971
  591   845.5179   26.2224
  592   845.9211   26.2475
  593   846.3246   26.2722
  594   846.7284   26.2975
  595   847.1327   26.3228
  596   847.5372   26.3477
  597   847.9422   26.3731
  598   848.3475   26.3983
  599   848.7532   26.4234
  600   849.1593   26.4489
  601   849.5657   26.4743
  602   849.9724   26.4994
  603   850.3796   26.5250
  604   850.7871   26.5505
  605   851.1950   26.5756
  606   851.6032   26.6014
  607   852.0118   26.6270
  608   852.4208   26.6521
  609   851.4870   26.5934
  610   851.7936   26.6129
  611   852.1005   26.6327
  612   852.4077   26.6512
  613   852.7151   26.6702
  614   853.0227   26.6901
  615   853.3306   26.7094
  616   853.6387   26.7280
  617   853.9470   26.7473
  618   854.2556   26.7673
  619   854.5644   26.7865
  620   854.8735   26.8052
  621   855.1828   26.8248
  622   855.4924   26.8447
  623   855.8022   26.8639
  624   856.1122   26.8827
  625   856.4225   26.9026
  626   856.7331   26.9225
  627   857.0438   26.9416
  628   857.3549   26.9608
  629   857.6661   26.9806
  630   857.9776   27.0004
  631   858.2894   27.0196
  632   858.6014   27.0391
  633   858.9136   27.0592
  634   859.2261   27.0788
  635   859.5389   27.0980
  636   859.8518   27.1178
  637   860.1651   27.1379
  638   860.4785   27.1575
  639   860.7923   27.1770
  640   861.1062   27.1970
  641   861.4204   27.2170
  642   861.7349   27.2364
  643   862.0496   27.2562
  644   862.3646   27.2764
  645   862.6798   27.2962
  646   862.9952   27.3159
  647   863.3109   27.3359
  648   863.6269   27.3562
  649   863.9431   27.3759
  650   864.2596   27.3957
  651   864.5763   27.4160
  652   864.8932   27.4362
  653   865.2104   27.4559
  654   865.5279   27.4760
  655   865.8456   27.4964
  656   866.1635   27.5165
  657   866.4817   27.5364
  658   866.8002   27.5566
  659   867.1189   27.5771
  660   867.4379   27.5971
  661   867.7571   27.6172
  662   868.0765   27.6378
  663   868.3963   27.6583
  664   868.7162   27.6782
  665   869.0365   27.6985
  666   869.3570   27.7192
  667   869.6777   27.7395
  668   869.9987   27.7596
  669   870.3199   27.7803
  670   870.6414   27.8010
  671   870.9632   27.8212
  672   871.2852   27.8415
  673   871.6074   27.8623
  674   871.9299   27.8830
  675   872.2527   27.9032
  676   872.5758   27.9239
  677   872.8990   27.9449
  678   873.2226   27.9654
  679   873.5464   27.9858
  680   873.8704   28.0067
  681   874.1948   28.0272
  682   874.5193   28.0483
  683   874.8442   28.0688
  684   875.1693   28.0900
  685   875.4946   28.1108
  686   875.8202   28.1313
  687   876.1461   28.1523
  688   876.4722   28.1735
  689   876.7986   28.1943
  690   877.1252   28.2151
  691   877.4521   28.2361
  692   877.7793   28.2574
  693   878.1067   28.2783
  694   878.4344   28.2991
  695   878.7623   28.3204
  696   879.0906   28.3418
  697   879.4190   28.3626
  698   879.7477   28.3837
  699   880.0767   28.4051
  700   880.4060   28.4264
  701   880.7355   28.4473
  702   881.0653   28.4687
  703   881.3953   28.4903
  704   881.7256   28.5115
  705   882.0562   28.5325
  706   882.3871   28.5542
  707   882.7182   28.5758
  708   883.0495   28.5969
  709   883.3812   28.6182
  710   883.7130   28.6402
  711   884.0452   28.6616
  712   884.3776   28.6826
  713   884.7103   28.7046
  714   885.0433   28.7267
  715   885.3765   28.7477
  716   885.7100   28.7692
  717   886.0438   28.7916
  718   886.3778   28.8132
  719   886.7121   28.8342
  720   887.0466   28.8565
  721   887.3815   28.8787
  722   887.7166   28.8998
  723   888.0519   28.9214
  724   888.3876   28.9441
  725   888.7235   28.9659
  726   889.0597   28.9872
  727   889.3961   29.0095
  728   889.7328   29.0322
  729   890.0698   29.0534
  730   890.4070   29.0753
  731   890.7446   29.0983
  732   891.0824   29.1203
  733   891.4204   29.1415
  734   891.7588   29.1641
  735   892.0974   29.1870
  736   892.4363   29.2084
  737   892.7754   29.2305
  738   893.1149   29.2536
  739   893.4546   29.2758
  740   893.7945   29.2974
  741   894.1348   29.3200
  742   894.4753   29.3430
  743   894.8161   29.3650
  744   895.1572   29.3873
  745   895.4985   29.4106
  746   895.8401   29.4329
  747   896.1820   29.4547
  748   896.5242   29.4778
  749   896.8667   29.5009
  750   897.2094   29.5227
  751   897.5524   29.5456
  752   897.8957   29.5691
  753   898.2392   29.5913
  754   898.5830   29.6136
  755   898.9272   29.6370
  756   899.2716   29.6603
  757   899.6162   29.6822
  758   899.9612   29.7054
  759   900.3064   29.7290
  760   900.6519   29.7514
  761   900.9977   29.7739
  762   901.3437   29.7978
  763   901.6901   29.8208
  764   902.0367   29.8433
  765   902.3836   29.8669
  766   902.7308   29.8905
  767   903.0782   29.9132
  768   903.4260   29.9361
  769   903.7740   29.9603
  770   911.2319   30.4621
  771   911.5867   30.4867
  772   911.9418   30.5103
  773   912.2972   30.5343
  774   912.6528   30.5584
  775   913.0088   30.5824
  776   913.3650   30.6070
  777   913.7215   30.6312
  778   914.0783   30.6553
  779   914.4354   30.6798
  780   914.7928   30.7043
  781   915.1505   30.7285
  782   915.5084   30.7530
  783   915.8667   30.7776
  784   916.2252   30.8020
  785   916.5841   30.8266
  786   916.9432   30.8513
  787   917.3026   30.8759
  788   917.6623   30.9003
  789   918.0223   30.9252
  790   918.3826   30.9500
  791   918.7432   30.9745
  792   919.1041   30.9992
  793   919.4653   31.0244
  794   919.8267   31.0493
  795   920.1885   31.0739
  796   920.5506   31.0989
  797   920.9129   31.1242
  798   921.2756   31.1489
  799   921.6385   31.1737
  800   922.0017   31.1994
  801   922.3653   31.2241
  802   922.7291   31.2490
  803   923.0932   31.2747
  804   923.4576   31.2998
  805   923.8223   31.3248
  806   924.1873   31.3505
  807   924.5526   31.3759
  808   924.9182   31.4008
  809   925.2841   31.4265
  810   925.6504   31.4519
  811   926.0169   31.4772
  812   926.3837   31.5029
  813   926.7508   31.5285
  814   927.1182   31.5537
  815   927.4859   31.5795
  816   927.8538   31.6053
  817   928.2222   31.6307
  818   928.5908   31.6564
  819   928.9597   31.6825
  820   929.3289   31.7080
  821   929.6984   31.7337
  822   930.0682   31.7601
  823   930.4383   31.7856
  824   930.8087   31.8112
  825   931.1794   31.8377
  826   931.5504   31.8636
  827   931.9218   31.8892
  828   932.2934   31.9159
  829   932.6653   31.9419
  830   933.0375   31.9675
  831   933.4101   31.9943
  832   933.7829   32.0205
  833   934.1561   32.0460
  834   934.5295   32.0727
  835   934.9033   32.0995
  836   935.2774   32.1251
  837   935.6517   32.1517
  838   936.0264   32.1786
  839   936.4014   32.2043
  840   936.7767   32.2309
  841   937.1523   32.2583
  842   937.5282   32.2841
  843   937.9045   32.3103
  844   938.2810   32.3380
  845   938.6578   32.3640
  846   939.0350   32.3903
  847   939.4125   32.4182
  848   939.7902   32.4446
  849   940.1683   32.4704
  850   940.5467   32.4984
  851   940.9254   32.5252
  852   941.3044   32.5511
  853   941.6838   32.5794
  854   942.0634   32.6062
  855   942.4434   32.6322
  856   942.8236   32.6601
  857   943.2042   32.6874
  858   943.5851   32.7134
  859   943.9663   32.7413
  860   944.3478   32.7690
  861   944.7297   32.7951
  862   945.1118   32.8229
  863   945.4943   32.8511
  864   945.8771   32.8768
  865   946.2602   32.9049
  866   946.6436   32.9329
  867   947.0273   32.9592
  868   947.4114   32.9870
  869   947.7958   33.0154
  870   948.1804   33.0419
  871   948.5655   33.0697
  872   948.9508   33.0982
  873   949.3364   33.1249
  874   949.7224   33.1527
  875   950.1087   33.1811
  876   950.4953   33.2080
  877   950.8822   33.2360
  878   951.2694   33.2645
  879   951.6570   33.2916
  880   952.0449   33.3196
  881   952.4331   33.3481
  882   952.8216   33.3756
  883   953.2105   33.4034
  884   953.5996   33.4322
  885   953.9891   33.4599
  886   954.3789   33.4875
  887   954.7691   33.5163
  888   955.1595   33.5443
  889   955.5503   33.5723
  890   955.9414   33.6009
  891   956.3329   33.6291
  892   956.7246   33.6572
  893   957.1167   33.6860
  894   957.5091   33.7141
  895   957.9019   33.7422
  896   958.2950   33.7715
  897   958.6884   33.7995
  898   959.0821   33.8277
  899   959.4761   33.8570
  900   959.8705   33.8853
  901   960.2652   33.9136
  902   960.6603   33.9429
  903   961.0556   33.9717
  904   961.4513   33.9997
  905   961.8473   34.0291
  906   962.2437   34.0581
  907   962.6404   34.0860
  908   963.0374   34.1159
  909   963.4347   34.1447
  910   963.8324   34.1729
  911   964.2304   34.2027
  912   964.6288   34.2316
  913   965.0275   34.2602
  914   965.4265   34.2898
  915   965.8258   34.3187
  916   966.2255   34.3476
  917   966.6255   34.3774
  918   967.0258   34.4066
  919   967.4265   34.4351
  920   967.8275   34.4654
  921   968.2289   34.4944
  922   968.6306   34.5234
  923   969.0326   34.5534
  924   969.4350   34.5823
  925   969.8377   34.6120
  926   970.2407   34.6418
  927   970.6441   34.6707
  928   971.0478   34.7010
  929   971.4518   34.7302
  930   971.8562   34.7598
  931   972.2609   34.7901
  932   972.6660   34.8194
  933   973.0714   34.8490
  934   973.4772   34.8796
  935   973.8833   34.9086
  936   974.2897   34.9390
  937   973.8142   34.9037
  938   974.2206   34.9337
  939   974.6274   34.9636
  940   975.0345   34.9935
  941   975.4419   35.0235
  942   975.8497   35.0535
  943   976.2578   35.0836
  944   976.6663   35.1136
  945   977.0751   35.1437
  946   977.4842   35.1739
  947   977.8937   35.2041
  948   978.3036   35.2341
  949   978.7137   35.2646
  950   979.1242   35.2951
  951   979.5351   35.3249
  952   979.9463   35.3557
  953   980.3578   35.3859
  954   980.7697   35.4161
  955   981.1819   35.4470
  956   981.5945   35.4772
  957   982.0074   35.5076
  958   982.4206   35.5385
  959   982.8342   35.5689
  960   983.2482   35.5994
  961   983.6625   35.6304
  962   984.0771   35.6608
  963   984.4921   35.6916
  964   984.9074   35.7225
  965   985.3231   35.7531
  966   985.7391   35.7838
  967   986.1555   35.8151
  968   986.5722   35.8457
  969   986.9892   35.8766
  970   987.4067   35.9078
  971   987.8244   35.9386
  972   988.2425   35.9698
  973   988.6610   36.0009
  974   989.0798   36.0316
  975   989.4990   36.0632
  976   989.9185   36.0942
  977   990.3384   36.1252
  978   990.7586   36.1570
  979   991.1792   36.1879
  980   991.6001   36.2190
  981   992.0214   36.2508
  982   992.4430   36.2818
  983   992.8650   36.3133
  984   993.2873   36.3451
  985   993.7100   36.3758
  986   994.1331   36.4080
  987   994.5565   36.4394
  988   994.9803   36.4704
  989   995.4044   36.5027
  990   995.8289   36.5341
  991   996.2537   36.5654
  992   996.6789   36.5978
  993   997.1044   36.6291
  994   997.5303   36.6607
  995   997.9566   36.6932
  996   998.3832   36.7242
  997   998.8102   36.7564
  998   999.2375   36.7887
  999   999.6652   36.8199
 1000  1000.0933   36.8525
 1001  1000.5217   36.8843
 1002  1000.9505   36.9159
 1003  1001.3797   36.9487
 1004  1001.8092   36.9804
 1005  1002.2390   37.0123
 1006  1002.6693   37.0450
 1007  1003.0999   37.0768
 1008  1003.5308   37.1092
 1009  1003.9622   37.1416
 1010  1004.3939   37.1736
 1011  1004.8259   37.2061
 1012  1005.2583   37.2386
 1013  1005.6911   37.2706
 1014  1006.1243   37.3034
 1015  1006.5578   37.3358
 1016  1006.9917   37.3681
 1017  1007.4259   37.4009
 1018  1007.8605   37.4333
 1019  1008.2955   37.4658
 1020  1008.7309   37.4986
 1021  1009.1666   37.5312
 1022  1009.6027   37.5638
 1023  1010.0392   37.5968
 1024  1010.4760   37.6294
 1025  1010.9132   37.6622
 1026  1011.3508   37.6951
 1027  1011.7887   37.7279
 1028  1012.2271   37.7609
 1029  1012.6657   37.7938
 1030  1013.1048   37.8268
 1031  1013.5442   37.8599
 1032  1013.9841   37.8928
 1033  1014.4242   37.9259
 1034  1014.8648   37.9592
 1035  1015.3057   37.9920
 1036  1015.7470   38.0255
 1037  1016.1887   38.0586
 1038  1016.6308   38.0917
 1039  1017.0732   38.1254
 1040  1017.5160   38.1583
 1041  1017.9592   38.1919
 1042  1018.4028   38.2254
 1043  1018.8467   38.2584
 1044  1019.2911   38.2924
 1045  1019.7358   38.3255
 1046  1020.1808   38.3590
 1047  1020.6263   38.3931
 1048  1021.0721   38.4260
 1049  1021.5184   38.4601
 1050  1021.9650   38.4939
 1051  1022.4120   38.5270
 1052  1022.8593   38.5615
 1053  1023.3071   38.5947
 1054  1023.7552   38.6286
 1055  1024.2037   38.6630
 1056  1024.6526   38.6961
 1057  1025.1019   38.7305
 1058  1025.5516   38.7646
 1059  1026.0016   38.7979
 1060  1026.4520   38.8329
 1061  1026.9029   38.8663
 1062  1027.3541   38.9003
 1063  1027.8057   38.9354
 1064  1028.2576   38.9685
 1065  1028.7100   39.0033
 1066  1029.1628   39.0377
 1067  1029.6159   39.0712
 1068  1030.0694   39.1065
 1069  1030.5234   39.1402
 1070  1030.9777   39.1743
 1071  1031.4324   39.2098
 1072  1031.8875   39.2432
 1073  1032.3429   39.2785
 1074  1032.7988   39.3130
 1075  1033.2551   39.3468
 1076  1033.7117   39.3826
 1077  1034.1688   39.4163
 1078  1034.6262   39.4511
 1079  1035.0841   39.4866
 1080  1035.5423   39.5203
 1081  1036.0009   39.5561
 1082  1036.4599   39.5905
 1083  1036.9193   39.6250
 1084  1037.3791   39.6610
 1085  1037.8393   39.6947
 1086  1038.2999   39.7302
 1087  1038.7609   39.7656
 1088  1039.2223   39.7997
 1089  1039.6841   39.8361
 1090  1040.1463   39.8704
 1091  1040.6089   39.9056
 1092  1041.0719   39.9416
 1093  1041.5353   39.9758
 1094  1041.9991   40.0120
 1095  1042.4633   40.0471
 1096  1042.9279   40.0821
 1097  1043.3929   40.1182
 1098  1043.8583   40.1528
 1099  1044.3240   40.1888
 1100  1044.7902   40.2245
 1101  1045.2568   40.2595
 1102  1045.7239   40.2960
 1103  1046.1913   40.3309
 1104  1056.0706   41.0865
 1105  1056.5464   41.1230
 1106  1057.0226   41.1595
 1107  1057.4993   41.1960
 1108  1057.9763   41.2326
 1109  1058.4538   41.2693
 1110  1058.9317   41.3060
 1111  1059.4100   41.3427
 1112  1059.8887   41.3794
 1113  1060.3678   41.4162
 1114  1060.8473   41.4531
 1115  1061.3272   41.4899
 1116  1061.8076   41.5268
 1117  1062.2883   41.5638
 1118  1062.7695   41.6008
 1119  1063.2511   41.6378
 1120  1063.7331   41.6750
 1121  1064.2155   41.7119
 1122  1064.6983   41.7493
 1123  1065.1816   41.7864
 1124  1065.6652   41.8237
 1125  1066.1493   41.8609
 1126  1066.6338   41.8982
 1127  1067.1187   41.9358
 1128  1067.6041   41.9729
 1129  1068.0898   42.0106
 1130  1068.5760   42.0480
 1131  1069.0626   42.0855
 1132  1069.5496   42.1232
 1133  1070.0370   42.1606
 1134  1070.5249   42.1985
 1135  1071.0132   42.2360
 1136  1071.5019   42.2737
 1137  1071.9910   42.3118
 1138  1072.4806   42.3491
 1139  1072.9705   42.3875
 1140  1073.4609   42.4251
 1141  1073.9518   42.4631
 1142  1074.4430   42.5014
 1143  1074.9347   42.5388
 1144  1075.4268   42.5777
 1145  1075.9193   42.6151
 1146  1076.4122   42.6536
 1147  1076.9056   42.6919
 1148  1077.3994   42.7297
 1149  1077.8937   42.7687
 1150  1078.3883   42.8062
 1151  1078.8834   42.8453
 1152  1079.3790   42.8833
 1153  1079.8749   42.9217
 1154  1080.3713   42.9608
 1155  1080.8681   42.9984
 1156  1081.3654   43.0381
 1157  1081.8631   43.0756
 1158  1082.3612   43.1153
 1159  1082.8597   43.1535
 1160  1083.3587   43.1921
 1161  1083.8581   43.2319
 1162  1084.3580   43.2694
 1163  1084.8583   43.3095
 1164  1085.3590   43.3478
 1165  1085.8601   43.3874
 1166  1086.3617   43.4263
 1167  1086.8638   43.4643
 1168  1087.3663   43.5047
 1169  1087.8692   43.5428
 1170  1088.3725   43.5827
 1171  1088.8763   43.6217
 1172  1089.3805   43.6609
 1173  1089.8852   43.7007
 1174  1090.3903   43.7396
 1175  1090.8959   43.7799
 1176  1091.4019   43.8181
 1177  1091.9083   43.8586
 1178  1092.4152   43.8976
 1179  1092.9225   43.9374
 1180  1093.4303   43.9774
 1181  1093.9385   44.0165
 1182  1094.4472   44.0568
 1183  1094.9563   44.0961
 1184  1095.4658   44.1363
 1185  1095.9758   44.1760
 1186  1096.4863   44.2160
 1187  1096.9971   44.2561
 1188  1097.5085   44.2958
 1189  1098.0203   44.3363
 1190  1098.5325   44.3760
 1191  1099.0452   44.4164
 1192  1099.5583   44.4566
 1193  1100.0719   44.4967
 1194  1100.5860   44.5373
 1195  1101.1005   44.5773
 1196  1101.6154   44.6180
 1197  1102.1308   44.6583
 1198  1102.6466   44.6988
 1199  1103.1629   44.7394
 1200  1103.6797   44.7798
 1201  1104.1969   44.8205
 1202  1104.7146   44.8613
 1203  1105.2327   44.9019
 1204  1105.7513   44.9428
 1205  1106.2703   44.9834
 1206  1106.7898   45.0245
 1207  1107.3098   45.0652
 1208  1107.8302   45.1063
 1209  1108.3511   45.1473
 1210  1108.8724   45.1883
 1211  1109.3942   45.2295
 1212  1109.9164   45.2704
 1213  1110.4391   45.3120
 1214  1110.9623   45.3528
 1215  1111.4860   45.3945
 1216  1112.0101   45.4355
 1217  1112.5346   45.4772
 1218  1113.0597   45.5185
 1219  1113.5851   45.5599
 1220  1114.1111   45.6017
 1221  1114.6375   45.6430
 1222  1115.1644   45.6849
 1223  1115.6918   45.7261
 1224  1116.2196   45.7685
 1225  1116.7479   45.8096
 1226  1117.2766   45.8520
 1227  1117.8059   45.8933
 1228  1118.3356   45.9359
 1229  1118.8657   45.9773
 1230  1119.3964   46.0196
 1231  1119.9275   46.0617
 1232  1120.4591   46.1036
 1233  1120.9911   46.1462
 1234  1121.5236   46.1879
 1235  1122.0566   46.2307
 1236  1122.5901   46.2725
 1237  1123.1240   46.3154
 1238  1123.6585   46.3574
 1239  1124.1934   46.3998
 1240  1124.7287   46.4427
 1241  1125.2646   46.4848
 1242  1125.8009   46.5279
 1243  1126.3377   46.5701
 1244  1126.8750   46.6132
 1245  1127.4128   46.6557
 1246  1127.9510   46.6986
 1247  1128.4897   46.7414
 1248  1129.0289   46.7842
 1249  1129.5686   46.8274
 1250  1130.1088   46.8702
 1251  1130.6494   46.9135
 1252  1131.1905   46.9563
 1253  1131.7322   46.9997
 1254  1132.2742   47.0427
 1255  1132.8168   47.0861
 1256  1133.3599   47.1293
 1257  1133.9034   47.1727
 1258  1134.4475   47.2160
 1259  1134.9920   47.2595
 1260  1135.5370   47.3030
 1261  1136.0825   47.3465
 1262  1136.6285   47.3901
 1263  1216.9686   53.8927
 1264  1217.4755   53.9338
 1265  1217.9830   53.9755
 1266  1218.4908   54.0168
 1267  1218.9990   54.0584
 1268  1219.5077   54.1002
 1269  1220.0168   54.1413
 1270  1220.5263   54.1836
 1271  1221.0363   54.2246
 1272  1221.5466   54.2670
 1273  1222.0574   54.3081
 1274  1222.5686   54.3503
 1275  1223.0802   54.3920
 1276  1223.5923   54.4337
 1277  1224.1048   54.4760
 1278  1224.6177   54.5173
 1279  1225.1310   54.5601
 1280  1225.6448   54.6012
 1281  1226.1590   54.6441
 1282  1226.6736   54.6855
 1283  1227.1886   54.7282
 1284  1227.7041   54.7701
 1285  1228.2200   54.8122
 1286  1228.7364   54.8548
 1287  1229.2531   54.8964
 1288  1229.7703   54.9395
 1289  1230.2879   54.9810
 1290  1230.8060   55.0242
 1291  1231.3245   55.0659
 1292  1231.8434   55.1089
 1293  1232.3628   55.1511
 1294  1232.8825   55.1937
 1295  1233.4028   55.2364
 1296  1233.9234   55.2788
 1297  1234.4445   55.3217
 1298  1234.9660   55.3640
 1299  1235.4880   55.4071
 1300  1236.0104   55.4495
 1301  1236.5332   55.4927
 1302  1237.0565   55.5351
 1303  1237.5802   55.5784
 1304  1238.1043   55.6209
 1305  1238.6289   55.6642
 1306  1239.1539   55.7068
 1307  1239.6794   55.7501
 1308  1240.2053   55.7930
 1309  1240.7316   55.8361
 1310  1241.2584   55.8793
 1311  1241.7857   55.9223
 1312  1242.3133   55.9658
 1313  1242.8414   56.0086
 1314  1243.3700   56.0524
 1315  1243.8990   56.0951
 1316  1244.4284   56.1391
 1317  1244.9583   56.1819
 1318  1245.4886   56.2258
 1319  1246.0194   56.2689
 1320  1246.5506   56.3127
 1321  1247.0823   56.3560
 1322  1247.6144   56.3996
 1323  1248.1469   56.4433
 1324  1248.6799   56.4867
 1325  1249.2134   56.5308
 1326  1249.7473   56.5740
 1327  1250.2816   56.6184
 1328  1250.8164   56.6615
 1329  1251.3517   56.7059
 1330  1251.8874   56.7492
 1331  1252.4235   56.7937
 1332  1252.9601   56.8372
 1333  1253.4972   56.8814
 1334  1254.0347   56.9254
 1335  1254.5727   56.9693
 1336  1255.1111   57.0136
 1337  1255.6499   57.0574
 1338  1256.1893   57.1020
 1339  1256.7290   57.1457
 1340  1257.2693   57.1905
 1341  1257.8100   57.2343
 1342  1258.3511   57.2790
 1343  1258.8927   57.3230
 1344  1259.4348   57.3677
 1345  1259.9773   57.4119
 1346  1260.5202   57.4565
 1347  1261.0637   57.5009
 1348  1261.6076   57.5456
 1349  1262.1519   57.5900
 1350  1262.6967   57.6349
 1351  1263.2420   57.6793
 1352  1263.7877   57.7243
 1353  1264.3339   57.7687
 1354  1264.8806   57.8138
 1355  1265.4277   57.8582
 1356  1265.9753   57.9035
 1357  1266.5234   57.9481
 1358  1267.0719   57.9933
 1359  1267.6209   58.0381
 1360  1268.1703   58.0831
 1361  1268.7202   58.1283
 1362  1269.2706   58.1731
 1363  1269.8214   58.2187
 1364  1270.3727   58.2632
 1365  1270.9245   58.3093
 1366  1271.4768   58.3535
 1367  1272.0295   58.4001
 1368  1272.5827   58.4440
 1369  1284.3424   59.4086
 1370  1284.9057   59.4557
 1371  1285.4695   59.5012
 1372  1286.0337   59.5481
 1373  1286.5985   59.5940
 1374  1287.1637   59.6407
 1375  1287.7294   59.6869
 1376  1288.2956   59.7335
 1377  1288.8622   59.7800
 1378  1289.4294   59.8265
 1379  1289.9970   59.8733
 1380  1290.5652   59.9197
 1381  1291.1338   59.9667
 1382  1291.7029   60.0131
 1383  1292.2725   60.0602
 1384  1292.8425   60.1067
 1385  1293.4131   60.1539
 1386  1293.9842   60.2006
 1387  1294.5557   60.2477
 1388  1295.1277   60.2946
 1389  1295.7003   60.3417
 1390  1296.2733   60.3888
 1391  1296.8468   60.4358
 1392  1297.4208   60.4831
 1393  1297.9953   60.5301
 1394  1298.5702   60.5777
 1395  1299.1457   60.6247
 1396  1299.7217   60.6725
 1397  1300.2981   60.7194
 1398  1300.8751   60.7674
 1399  1301.4526   60.8142
 1400  1302.0305   60.8624
 1401  1302.6090   60.9093
 1402  1303.1879   60.9577
 1403  1303.7674   61.0047
 1404  1304.3473   61.0530
 1405  1304.9277   61.1002
 1406  1305.5087   61.1486
 1407  1306.0901   61.1958
 1408  1306.6721   61.2444
 1409  1307.2545   61.2917
 1410  1307.8375   61.3403
 1411  1308.4209   61.3878
 1412  1309.0049   61.4364
 1413  1309.5893   61.4841
 1414  1310.1743   61.5326
 1415  1310.7598   61.5804
 1416  1311.3457   61.6292
 1417  1311.9322   61.6770
 1418  1312.5192   61.7258
 1419  1313.1067   61.7740
 1420  1313.6947   61.8226
 1421  1314.2832   61.8709
 1422  1314.8722   61.9198
 1423  1315.4618   61.9681
 1424  1316.0518   62.0170
 1425  1316.6423   62.0655
 1426  1317.2334   62.1145
 1427  1317.8250   62.1631
 1428  1318.4171   62.2121
 1429  1319.0097   62.2608
 1430  1319.6028   62.3100
 1431  1320.1964   62.3588
 1432  1320.7905   62.4080
 1433  1321.3852   62.4569
 1434  1321.9804   62.5063
 1435  1322.5760   62.5552
 1436  1323.1722   62.6047
 1437  1323.7690   62.6537
 1438  1324.3662   62.7034
 1439  1324.9640   62.7524
 1440  1325.5622   62.8023
 1441  1326.1610   62.8514
 1442  1326.7604   62.9013
 1443  1327.3602   62.9505
 1444  1327.9606   63.0006
 1445  1328.5614   63.0498
 1446  1329.1629   63.1000
 1447  1329.7648   63.1494
 1448  1330.3672   63.1996
 1449  1330.9702   63.2492
 1450  1331.5737   63.2993
 1451  1332.1778   63.3492
 1452  1332.7823   63.3993
 1453  1333.3874   63.4494
 1454  1333.9930   63.4995
 1455  1334.5992   63.5499
 1456  1335.2058   63.5998
 1457  1335.8130   63.6505
 1458  1336.4208   63.7004
 1459  1337.0290   63.7513
 1460  1337.6378   63.8013
 1461  1338.2471   63.8523
 1462  1338.8570   63.9025
 1463  1338.1561   63.8445
 1464  1338.6642   63.8866
 1465  1339.1728   63.9288
 1466  1339.6817   63.9711
 1467  1340.1911   64.0133
 1468  1340.7008   64.0557
 1469  1341.2110   64.0979
 1470  1341.7216   64.1404
 1471  1342.2326   64.1827
 1472  1342.7440   64.2252
 1473  1343.2558   64.2677
 1474  1343.7680   64.3101
 1475  1344.2806   64.3528
 1476  1344.7936   64.3954
 1477  1345.3071   64.4381
 1478  1345.8209   64.4809
 1479  1346.3352   64.5233
 1480  1346.8499   64.5663
 1481  1347.3650   64.6091
 1482  1347.8805   64.6520
 1483  1348.3964   64.6950
 1484  1348.9127   64.7376
 1485  1349.4295   64.7808
 1486  1349.9466   64.8237
 1487  1350.4642   64.8669
 1488  1350.9822   64.9096
 1489  1351.5006   64.9531
 1490  1352.0194   64.9961
 1491  1352.5386   65.0395
 1492  1353.0583   65.0827
 1493  1353.5783   65.1262
 1494  1354.0988   65.1697
 1495  1354.6197   65.2125
 1496  1355.1410   65.2564
 1497  1355.6628   65.2995
 1498  1356.1849   65.3435
 1499  1356.7075   65.3870
 1500  1357.2305   65.4304
 1501  1357.7539   65.4740
 1502  1358.2778   65.5176
 1503  1358.8020   65.5617
 1504  1359.3267   65.6052
 1505  1359.8518   65.6494
 1506  1360.3773   65.6928
 1507  1360.9033   65.7371
 1508  1361.4297   65.7808
 1509  1361.9565   65.8249
 1510  1362.4837   65.8689
 1511  1363.0113   65.9129
 1512  1363.5394   65.9572
 1513  1364.0679   66.0011
 1514  1364.5968   66.0456
 1515  1365.1262   66.0897
 1516  1365.6560   66.1341
 1517  1366.1862   66.1783
 1518  1366.7168   66.2228
 1519  1367.2479   66.2672
 1520  1367.7794   66.3116
 1521  1368.3113   66.3562
 1522  1368.8436   66.4007
 1523  1369.3764   66.4454
 1524  1369.9096   66.4900
 1525  1370.4433   66.5348
 1526  1370.9773   66.5794
 1527  1371.5119   66.6243
 1528  1372.0468   66.6691
 1529  1372.5822   66.7140
 1530  1373.1180   66.7589
 1531  1373.6542   66.8038
 1532  1374.1909   66.8490
 1533  1374.7280   66.8938
 1534  1375.2655   66.9392
 1535  1375.8035   66.9841
 1536  1376.3419   67.0295
 1537  1376.8808   67.0746
 1538  1377.4201   67.1198
 1539  1377.9598   67.1654
 1540  1378.4999   67.2105
 1541  1379.0405   67.2562
 1542  1379.5816   67.3014
 1543  1380.1231   67.3472
 1544  1380.6650   67.3925
 1545  1381.2073   67.4383
 1546  1381.7501   67.4839
 1547  1382.2934   67.5296
 1548  1382.8371   67.5755
 1549  1383.3812   67.6211
 1550  1383.9257   67.6672
 1551  1384.4708   67.7128
 1552  1385.0162   67.7590
 1553  1385.5621   67.8047
 1554  1386.1084   67.8510
 1555  1386.6552   67.8969
 1556  1387.2025   67.9431
 1557  1387.7501   67.9893
 1558  1388.2982   68.0355
 1559  1388.8468   68.0819
 1560  1389.3958   68.1281
 1561  1389.9453   68.1747
 1562  1390.4952   68.2208
 1563  1391.0456   68.2676
 1564  1391.5964   68.3138
 1565  1392.1476   68.3607
 1566  1392.6993   68.4071
 1567  1393.2515   68.4539
 1568  1393.8041   68.5005
 1569  1394.3572   68.5473
 1570  1394.9107   68.5942
 1571  1395.4646   68.6409
 1572  1396.0190   68.6879
 1573  1396.5739   68.7348
 1574  1397.1292   68.7820
 1575  1397.6850   68.8288
 1576  1398.2412   68.8762
 1577  1398.7979   68.9231
 1578  1399.3551   68.9706
 1579  1399.9127   69.0176
 1580  1400.4707   69.0651
 1581  1401.0292   69.1123
 1582  1401.5882   69.1599
 1583  1402.1476   69.2072
 1584  1402.7075   69.2549
 1585  1403.2678   69.3023
 1586  1403.8286   69.3501
 1587  1404.3899   69.3976
 1588  1404.9516   69.4455
 1589  1405.5138   69.4930
 1590  1406.0765   69.5411
 1591  1406.6396   69.5887
 1592  1407.2031   69.6368
 1593  1407.7672   69.6847
 1594  1408.3317   69.7329
 1595  1408.8966   69.7808
 1596  1409.4620   69.8291
 1597  1410.0279   69.8772
 1598  1410.5943   69.9256
 1599  1411.1611   69.9737
 1600  1411.7284   70.0222
 1601  1412.2961   70.0705
 1602  1412.8643   70.1191
 1603  1413.4330   70.1674
 1604  1414.0022   70.2162
 1605  1414.5718   70.2646
 1606  1415.1419   70.3135
 1607  1415.7125   70.3620
 1608  1416.2835   70.4109
 1609  1416.8550   70.4596
 1610  1417.4270   70.5086
 1611  1417.9994   70.5575
 1612  1418.5723   70.6065
 1613  1419.1457   70.6555
 1614  1419.7196   70.7048
 1615  1420.2939   70.7537
 1616  1420.8687   70.8031
 1617  1421.4440   70.8522
 1618  1422.0198   70.9017
 1619  1422.5960   70.9509
 1620  1423.1727   71.0005
 1621  1423.7499   71.0499
 1622  1424.3276   71.0995
 1623  1424.9057   71.1491
 1624  1425.4843   71.1987
 1625  1426.0634   71.2484
 1626  1426.6430   71.2982
 1627  1427.2231   71.3480
 1628  1427.8036   71.3979
 1629  1428.3846   71.4477
 1630  1428.9661   71.4979
 1631  1429.5481   71.5478
 1632  1430.1306   71.5981
 1633  1430.7135   71.6480
 1634  1431.2969   71.6985
 1635  1431.8809   71.7484
 1636  1432.4653   71.7991
 1637  1433.0501   71.8491
 1638  1433.6355   71.9000
 1639  1434.2214   71.9500
 1640  1434.8077   72.0011
 1641  1435.3945   72.0511
 1642  1435.9819   72.1024
 1643  1436.5697   72.1524
 1644  1437.1580   72.2039
 1645  1437.7467   72.2539
 1646  1438.3360   72.3056
 1647  1438.9258   72.3557
 1648  1439.5160   72.4075
 1649  1440.1068   72.4577
 1650  1440.6980   72.5096
 1651  1441.2897   72.5598
 1652  1441.8819   72.6118
 1653  1442.4747   72.6624
 1654  1443.0679   72.7142
 1655  1460.2585   74.2015
 1656  1460.8668   74.2551
 1657  1461.4757   74.3071
 1658  1462.0850   74.3604
 1659  1462.6948   74.4125
 1660  1463.3051   74.4658
 1661  1463.9160   74.5182
 1662  1464.5273   74.5715
 1663  1465.1392   74.6243
 1664  1465.7515   74.6773
 1665  1466.3644   74.7304
 1666  1466.9778   74.7833
 1667  1467.5917   74.8366
 1668  1468.2061   74.8895
 1669  1468.8210   74.9429
 1670  1469.4365   74.9959
 1671  1470.0524   75.0493
 1672  1470.6689   75.1024
 1673  1471.2859   75.1559
 1674  1471.9034   75.2091
 1675  1472.5214   75.2627
 1676  1473.1399   75.3158
 1677  1473.7589   75.3695
 1678  1474.3785   75.4228
 1679  1474.9986   75.4766
 1680  1475.6192   75.5299
 1681  1476.2403   75.5836
 1682  1476.8619   75.6372
 1683  1477.4841   75.6908
 1684  1478.1067   75.7446
 1685  1478.7299   75.7981
 1686  1479.3537   75.8521
 1687  1479.9779   75.9057
 1688  1480.6027   75.9596
 1689  1481.2280   76.0133
 1690  1481.8538   76.0672
 1691  1482.4801   76.1211
 1692  1483.1070   76.1750
 1693  1483.7343   76.2290
 1694  1484.3623   76.2829
 1695  1484.9907   76.3370
 1696  1485.6197   76.3909
 1697  1486.2492   76.4451
 1698  1486.8792   76.4991
 1699  1487.5097   76.5533
 1700  1488.1408   76.6073
 1701  1488.7724   76.6616
 1702  1489.4046   76.7156
 1703  1490.0372   76.7699
 1704  1490.6705   76.8241
 1705  1491.3042   76.8784
 1706  1491.9385   76.9326
 1707  1492.5733   76.9869
 1708  1493.2086   77.0413
 1709  1493.8445   77.0956
 1710  1494.4809   77.1500
 1711  1495.1179   77.2043
 1712  1495.7553   77.2587
 1713  1496.3934   77.3132
 1714  1497.0319   77.3676
 1715  1497.6710   77.4221
 1716  1498.3107   77.4765
 1717  1498.9508   77.5310
 1718  1499.5916   77.5857
 1719  1500.2328   77.6348
 1720  1500.8746   77.6781
 1721  1501.5170   77.7267
 1722  1502.1598   77.7907
 1723  1502.8033   77.8576
 1724  1503.4472   77.9156
 1725  1504.0918   77.9708
 1726  1504.7368   78.0238
 1727  1505.3824   78.0728
 1728  1506.0286   78.1292
 1729  1506.6753   78.1872
 1730  1507.3225   78.2451
 1731  1507.9703   78.3059
 1732  1508.6187   78.3709
 1733  1509.2676   78.4323
 1734  1509.9170   78.4854
 1735  1510.5670   78.5467
 1736  1511.2175   78.6025
 1737  1511.8686   78.6452
 1738  1512.5203   78.6948
 1739  1513.1725   78.7652
 1740  1513.8252   78.8286
 1741  1514.4786   78.8660
 1742  1515.1324   78.9109
 1743  1515.7868   78.9697
 1744  1516.4418   79.0176
 1745  1517.0973   79.0610
 1746  1517.7534   79.1065
 1747  1518.4101   79.1559
 1748  1519.0673   79.2083
 1749  1519.7250   79.2502
 1750  1520.3834   79.2894
 1751  1521.0423   79.3335
 1752  1521.7017   79.3987
 1753  1522.3617   79.4597
 1754  1523.0223   79.5021
 1755  1523.6834   79.5636
 1756  1524.3451   79.6324
 1757  1525.0073   79.6908
 1758  1525.6702   79.7433
 1759  1526.3336   79.8048
 1760  1526.9975   79.8614
 1761  1541.0897   80.6662
 1762  1541.7656   80.6386
 1763  1542.4420   80.7661
 1764  1543.1191   80.8992
 1765  1543.7967   80.9215
 1766  1544.4749   80.8839
 1767  1545.1537   80.9536
 1768  1545.8330   81.0886
 1769  1546.5130   81.1377
 1770  1547.1935   81.1843
 1771  1547.8746   81.2289
 1772  1548.5563   81.2757
 1773  1549.2386   81.3046
 1774  1549.9214   81.3336
 1775  1550.6049   81.4164
 1776  1551.2889   81.5223
 1777  1551.9735   81.5966
 1778  1552.6587   81.6877
 1779  1553.3445   81.7690
 1780  1554.0309   81.8360
 1781  1554.7178   81.9527
 1782  1555.4054   82.0362
 1783  1556.0935   82.1271
 1784  1556.7823   82.2581
 1785  1557.4716   82.4324
 1786  1558.1615   82.5995
 1787  1558.8520   82.7601
 1788  1559.5431   82.8742
 1789  1560.2348   82.9458
 1790  1560.9271   83.0937
 1791  1561.6200   83.2708
 1792  1562.3134   83.4432
 1793  1563.0075   83.5746
 1794  1563.7022   83.6970
 1795  1564.3975   83.8525
 1796  1565.0933   84.0535
 1797  1565.7898   84.1251
 1798  1566.4869   84.0363
 1799  1567.1846   84.2106
 1800  1567.8828   84.5098
 1801  1568.5817   84.6393
 1802  1569.2812   84.6343
 1803  1569.9813   84.6764
 1804  1570.6819   84.7798
 1805  1571.3832   84.5564
 1806  1572.0851   84.4105
 1807  1572.7876   84.6217
 1808  1573.4907   84.8169
 1809  1574.1944   85.1473
 1810  1574.8988   85.1673
 1811  1575.6037   85.0688
 1812  1576.3092   85.0367
 1813  1577.0154   85.0537
 1814  1577.7221   85.1429
 1815  1578.4295   85.0765
 1816  1579.1375   84.9825
 1817  1579.8461   85.0743
 1818  1580.5553   85.2124
 1819  1581.2651   85.2004
 1820  1581.9756   85.2084
 1821  1582.6866   85.0673
 1822  1583.3983   84.9571
 1823  1584.1106   85.0103
 1824  1584.8235   85.0632
 1825  1585.5370   85.1376
 1826  1586.2512   84.9667
 1827  1586.9659   85.1528
 1828  1587.6813   85.3162
 1829  1588.3973   85.2908
 1830  1589.1139   85.1981
 1831  1589.8312   85.1397
 1832  1590.5491   85.2764
 1833  1591.2676   85.4399
 1834  1591.9867   85.5393
 1835  1592.7064   85.4269
 1836  1593.4268   85.3353
 1837  1594.1478   85.6225
 1838  1594.8694   85.8079
 1839  1595.5917   85.6557
 1840  1596.3146   85.5601
 1841  1597.0381   85.7157
 1842  1597.7622   85.9659
 1843  1598.4870   86.1113
 1844  1599.2124   86.1330
 1845  1599.9385   86.1556
 1846  1600.6652   86.2081
 1847  1601.3925   85.5529
 1848  1602.1204   85.1912
 1849  1602.8490   86.0661
 1850  1603.5782   86.6599
 1851  1604.3081   86.6081
 1852  1605.0386   86.6207
 1853  1605.7697   86.7365
 1854  1606.5015   86.1956
 1855  1607.2339   85.4705
 1856  1607.9669   86.0336
 1857  1608.7006   86.8290
 1858  1609.4349   87.0088
 1859  1610.1699   87.1794
 1860  1610.9055   87.2900
 1861  1611.6418   87.3745
 1862  1612.3787   87.2655
 1863  1613.1163   87.2227
 1864  1613.8545   87.2682
 1865  2181.4851  160.7400
 1866  2182.3908  161.9446
 1867  2183.2972  161.2773
 1868  2184.2044  162.7966
 1869  2185.1123  162.8365
 1870  2186.0210  161.3481
 1871  2186.9304  162.7416
 1872  2187.8405  163.2899
 1873  2188.7514  162.4705
 1874  2189.6631  162.3338
 1875  2190.5754  163.6064
 1876  2191.4886  163.1922
 1877  2192.4025  163.9670
 1878  2193.3171  164.6420
 1879  2194.2325  163.8489
 1880  2195.1486  165.4580
 1881  2196.0655  164.7288
 1882  2196.9832  162.7442
 1883  2197.9016  164.7211
 1884  2198.8207  165.3533
 1885  2199.7407  163.2075
 1886  2200.6613  164.6621
 1887  2201.5827  165.6808
 1888  2202.5049  164.8654
 1889  2203.4279  165.3318
 1890  2204.3516  166.8370
 1891  2205.2760  166.1069
 1892  2206.2013  163.8046
 1893  2207.1273  165.6415
 1894  2208.0540  165.3323
 1895  2208.9815  162.0222
 1896  2209.9098  163.8813
 1897  2210.8388  166.6923
 1898  2211.7686  168.1323
 1899  2212.6992  169.1866
 1900  2213.6306  169.4812
 1901  2214.5627  169.7336
 1902  2215.4956  169.1359
 1903  2216.4292  169.2854
 1904  2217.3636  169.9986
 1905  2218.2988  168.5805
 1906  2219.2348  165.9204
 1907  2220.1715  169.0794
 1908  2221.1091  170.7144
 1909  2222.0473  170.0311
 1910  2222.9864  172.0084
 1911  2223.9263  170.3703
 1912  2224.8669  169.6984
 1913  2225.8083  171.7723
 1914  2226.7505  170.4142
 1915  2227.6934  169.9316
 1916  2228.6372  171.9469
 1917  2229.5817  171.3701
 1918  2230.5270  171.4880
 1919  2231.4731  171.2707
 1920  2232.4199  171.3550
 1921  2233.3676  171.0736
 1922  2234.3160  171.2077
 1923  2235.2653  171.7750
 1924  2236.2153  169.7278
 1925  2237.1661  170.5626
 1926  2238.1177  170.0643
 1927  2239.0701  168.0445
 1928  2240.0233  172.9028
 1929  2240.9772  174.2116
 1930  2241.9320  174.4412
 1931  2242.8876  175.1328
 1932  2243.8439  174.1057
 1933  2244.8010  175.0804
 1934  2245.7590  175.9144
 1935  2246.7177  174.9732
 1936  2247.6773  175.0712
 1937  2248.6376  176.3245
 1938  2249.5987  175.1441
 1939  2250.5607  176.6282
 1940  2251.5234  175.9818
 1941  2252.4869  175.5036
 1942  2253.4513  176.8690
 1943  2254.4164  176.1485
 1944  2255.3824  175.8735
 1945  2256.3491  176.2050
 1946  2257.3167  176.2456
 1947  2258.2851  177.4897
 1948  2259.2542  176.8288
 1949  2260.2242  177.0252
 1950  2261.1950  177.5759
 1951  2262.1666  176.6974
 1952  2263.1390  177.6369
 1953  2264.1123  176.9560
 1954  2265.0863  177.1301
 1955  2266.0612  176.5750
 1956  2267.0369  175.4665
 1957  2268.0134  174.3337
 1958  2268.9907  174.7420
 1959  2269.9688  179.4775
 1960  2270.9477  179.1036
 1961  2271.9275  179.8144
 1962  2272.9081  181.0404
 1963  2273.8895  181.1682
 1964  2274.8717  182.0989
 1965  2275.8548  181.7208
 1966  2276.8386  181.9339
 1967  2277.8233  181.9854
 1968  2278.8089  182.7340
 1969  2279.7952  182.3160
 1970  2280.7824  182.5502
 1971  2281.7704  182.5005
 1972  2282.7592  182.4719
 1973  2283.7489  182.2748
 1974  2284.7394  182.6579
 1975  2285.7307  182.6059
 1976  2286.7229  182.9552
 1977  2287.7159  183.1021
 1978  2288.7097  183.0852
 1979  2289.7044  183.1903
 1980  2290.6999  182.5063
 1981  2291.6963  182.2858
 1982  2292.6934  182.8889
 1983  2293.6915  183.4439
 1984  2294.6903  183.2637
 1985  2295.6900  182.4272
 1986  2296.6906  181.5216
 1987  2297.6920  179.3989
 1988  2298.6942  181.4438
 1989  2299.6973  185.2865
 1990  2300.7012  186.2381
 1991  2301.7060  187.1921
 1992  2302.7116  187.4383
 1993  2303.7180  187.5321
 1994  2304.7254  188.1666
 1995  2305.7335  188.0876
 1996  2306.7425  187.8362
 1997  2307.7524  186.9883
 1998  2308.7631  187.0580
 1999  2309.7747  187.9987
 2000  2310.7871  188.2317
 2001  2311.8004  188.4022
 2002  2312.8146  188.5827
 2003  2313.8296  188.6232
 2004  2314.8454  188.8062
 2005  2315.8622  188.9724
 2006  2316.8797  188.9977
 2007  2317.8982  189.0947
 2008  2318.9175  188.5279
 2009  2319.9377  188.5454
 2010  2320.9587  189.0969
 2011  2321.9806  189.0997
 2012  2323.0034  189.2120
 2013  2324.0270  188.9007
 2014  2325.0515  188.3084
 2015  2299.7891  185.8125
 2016  2300.6937  186.2920
 2017  2301.5991  187.0290
 2018  2302.5051  187.3828
 2019  2303.4119  187.6878
 2020  2304.3195  187.8269
 2021  2305.2277  187.9034
 2022  2306.1368  188.3413
 2023  2307.0465  187.7752
 2024  2307.9570  186.5470
 2025  2308.8683  187.1810
 2026  2309.7803  188.0628
 2027  2310.6930  188.2434
 2028  2311.6065  188.5597
 2029  2312.5207  188.6822
 2030  2313.4356  188.4501
 2031  2314.3514  188.4846
 2032  2315.2678  188.9252
 2033  2316.1850  189.0502
 2034  2317.1030  189.1026
 2035  2318.0217  189.1841
 2036  2318.9411  188.5149
 2037  2319.8614  188.4126
 2038  2320.7823  189.0726
 2039  2321.7040  189.1320
 2040  2322.6265  189.2050
 2041  2323.5497  189.0762
 2042  2324.4737  188.6674
 2043  2325.3985  188.1185
 2044  2326.3239  187.4588
 2045  2327.2502  185.1680
 2046  2328.1772  185.5868
 2047  2329.1050  190.8661
 2048  2330.0335  193.3910
 2049  2330.9628  193.4574
 2050  2331.8929  193.4530
 2051  2332.8237  193.6047
 2052  2333.7553  193.8856
 2053  2334.6876  194.1380
 2054  2335.6207  194.3251
 2055  2336.5546  194.5337
 2056  2337.4892  194.7400
 2057  2338.4246  194.8915
 2058  2339.3608  194.9804
 2059  2340.2978  195.0805
 2060  2341.2355  195.2838
 2061  2342.1740  195.4344
 2062  2343.1132  195.5053
 2063  2344.0533  195.6320
 2064  2344.9941  195.9284
 2065  2345.9356  196.0865
 2066  2346.8780  196.1390
 2067  2347.8211  196.3837
 2068  2348.7650  196.5622
 2069  2349.7097  196.6955
 2070  2350.6552  196.7586
 2071  2351.6014  196.6242
 2072  2352.5484  196.8688
 2073  2353.4962  197.2538
 2074  2354.4448  197.1737
 2075  2355.3942  197.3456
 2076  2356.3443  197.6831
 2077  2357.2953  197.7192
 2078  2358.2470  197.7608
 2079  2359.1995  197.9416
 2080  2360.1528  198.1170
 2081  2361.1069  198.1432
 2082  2362.0617  198.2619
 2083  2363.0174  198.6392
 2084  2363.9738  198.8819
 2085  2364.9311  199.0377
 2086  2365.8891  199.2738
 2087  2366.8479  199.5080
 2088  2367.8075  199.7501
 2089  2368.7679  200.0391
 2090  2369.7291  200.2145
 2091  2370.6911  200.3885
 2092  2371.6539  200.6659
 2093  2372.6175  200.9252
 2094  2373.5819  200.9814
 2095  2374.5471  200.6787
 2096  2375.5131  199.5292
 2097  2376.4799  198.4808
 2098  2377.4474  197.5403
 2099  2378.4158  199.0139
 2100  2379.3850  199.0762
 2101  2380.3550  197.8722
 2102  2381.3258  200.5254
 2103  2382.2974  202.1495
 2104  2383.2699  202.5590
 2105  2384.2431  202.4185
 2106  2385.2171  201.3251
 2107  2386.1920  202.2121
 2108  2387.1676  203.6823
 2109  2388.1441  203.8093
 2110  2389.1214  203.2335
 2111  2390.0994  203.0150
 2112  2391.0784  203.6293
 2113  2392.0581  203.9967
 2114  2393.0386  204.4717
 2115  2394.0200  204.8741
 2116  2395.0021  205.2726
 2117  2395.9851  205.4185
 2118  2396.9689  205.5115
 2119  2397.9535  205.7657
 2120  2398.9390  205.5852
 2121  2399.9252  205.8384
 2122  2400.9123  206.5678
 2123  2401.9002  206.8403
 2124  2402.8890  207.0851
 2125  2403.8785  207.2998
 2126  2404.8689  207.5668
 2127  2405.8601  207.8396
 2128  2406.8522  207.9735
 2129  2407.8451  208.0107
 2130  2408.8388  208.0615
 2131  2409.8333  208.0342
 2132  2410.8287  208.2390
 2133  2411.8249  208.8779
 2134  2412.8219  208.3555
 2135  2413.8197  208.5022
 2136  2414.8184  209.1505
 2137  2415.8180  209.0612
 2138  2416.8183  209.3510
 2139  2417.8196  209.7375
 2140  2418.8216  209.0781
 2141  2419.8245  209.7893
 2142  2420.8282  211.1375
 2143  2421.8328  211.3799
 2144  2422.8382  211.5599
 2145  2446.1840  214.2213
 2146  2447.2085  215.5953
 2147  2448.2338  215.7740
 2148  2449.2599  215.6768
 2149  2450.2869  215.9072
 2150  2451.3147  216.2663
 2151  2452.3434  216.8143
 2152  2453.3729  217.0305
 2153  2454.4033  217.2134
 2154  2455.4345  217.2139
 2155  2456.4666  216.5626
 2156  2457.4995  216.3372
 2157  2458.5333  216.9495
 2158  2459.5679  216.6325
 2159  2460.6033  217.0539
 2160  2461.6396  217.7071
 2161  2462.6768  215.5256
 2162  2463.7148  214.8531
 2163  2464.7537  217.0992
 2164  2465.7934  216.3566
 2165  2466.8340  209.8223
 2166  2467.8755  205.8575
 2167  2468.9178  212.0663
 2168  2469.9610  217.6248
 2169  2471.0050  218.8555
 2170  2472.0499  217.4042
 2171  2473.0956  217.5250
 2172  2474.1422  219.7418
 2173  2475.1897  219.6629
 2174  2476.2381  219.2397
 2175  2477.2873  219.8288
 2176  2478.3373  219.4394
 2177  2479.3883  219.3733
 2178  2480.4401  220.6062
 2179  2481.4928  221.1407
 2180  2482.5463  221.0360
 2181  2483.6007  220.5713
 2182  2484.6560  220.7948
 2183  2485.7122  220.9613
 2184  2486.7693  220.4850
 2185  2487.8272  220.6975
 2186  2488.8860  220.6234
 2187  2489.9456  219.5801
 2188  2491.0062  220.2709
 2189  2492.0676  221.8294
 2190  2493.1299  221.9976
 2191  2494.1931  222.0770
 2192  2495.2572  221.8955
 2193  2496.3221  221.8876
 2194  2497.3880  222.1650
 2195  2498.4547  221.3764
 2196  2499.5223  219.5115
 2197  2500.5908  219.1438
 2198  2501.6602  220.3304
 2199  2502.7305  221.2112
 2200  2503.8016  222.5095
 2201  2504.8737  222.5177
 2202  2505.9466  221.0577
 2203  2507.0204  220.0013
 2204  2508.0952  219.0385
 2205  2509.1708  219.9452
 2206  2510.2473  222.2252
 2207  2511.3247  221.5711
 2208  2512.4030  220.3947
 2209  2513.4822  222.5964
 2210  2514.5623  224.2144
 2211  2515.6433  222.6305
 2212  2516.7252  223.3901
 2213  2517.8080  224.1622
 2214  2518.8918  222.3478
 2215  2519.9764  223.1495
 2216  2521.0619  225.0786
 2217  2522.1483  225.6714
 2218  2523.2356  226.0237
 2219  2524.3239  226.1065
 2220  2525.4130  225.9160
 2221  2526.5031  226.1742
 2222  2527.5941  226.6044
 2223  2528.6859  226.7080
 2224  2529.7787  225.9931
 2225  2530.8724  225.2677
 2226  2531.9670  226.1579
 2227  2533.0626  227.0351
 2228  2534.1590  226.8333
 2229  2535.2564  226.7068
 2230  2536.3547  226.9496
 2231  2537.4539  227.3556
 2232  2538.5540  227.5966
 2233  2539.6551  227.5282
 2234  2540.7570  226.9432
 2235  2541.8599  226.5706
 2236  2542.9638  227.0837
 2237  2544.0685  227.4399
 2238  2545.1742  227.7171
 2239  2546.2808  227.9772
 2240  2547.3883  228.0867
 2241  2548.4968  228.1517
 2242  2549.6062  228.5364
 2243  2550.7165  228.8224
 2244  2551.8277  228.7194
 2245  2552.9399  228.7614
 2246  2554.0530  228.9996
 2247  2555.1671  227.7630
 2248  2556.2821  225.2127
 2249  2557.3980  224.7975
 2250  2558.5149  226.9946
 2251  2559.6327  227.7628
 2252  2560.7514  228.4498
 2253  2561.8711  229.1920
 2254  2562.9917  228.3606
 2255  2564.1133  227.8850
 2256  2565.2358  227.5370
 2257  2566.3593  227.7078
 2258  2567.4837  228.3320
 2259  2568.6091  228.8377
 2260  2569.7354  228.1430
 2261  2541.8894  226.4784
 2262  2542.8940  227.1061
 2263  2543.8994  227.3794
 2264  2544.9056  227.6454
 2265  2545.9127  227.9378
 2266  2546.9206  228.1035
 2267  2547.9293  228.0157
 2268  2548.9388  228.2700
 2269  2549.9492  228.6921
 2270  2550.9604  228.8389
 2271  2551.9724  228.6973
 2272  2552.9853  228.7524
 2273  2553.9990  229.0577
 2274  2555.0135  228.2517
 2275  2556.0288  225.4860
 2276  2557.0450  224.3598
 2277  2558.0620  226.3581
 2278  2559.0798  227.5289
 2279  2560.0985  227.8124
 2280  2561.1180  229.0147
 2281  2562.1384  229.0981
 2282  2563.1596  228.2912
 2283  2564.1816  227.8205
 2284  2565.2044  227.5192
 2285  2566.2282  227.6205
 2286  2567.2527  228.1528
 2287  2568.2781  228.8091
 2288  2569.3043  228.7723
 2289  2570.3314  227.2178
 2290  2571.3593  226.4460
 2291  2572.3881  227.7504
 2292  2573.4177  229.8707
 2293  2574.4482  229.8519
 2294  2575.4795  229.5139
 2295  2576.5116  229.5162
 2296  2577.5446  229.7752
 2297  2578.5785  230.5691
 2298  2579.6132  230.6096
 2299  2580.6488  229.7014
 2300  2581.6852  228.0561
 2301  2582.7225  228.5472
 2302  2583.7606  229.0566
 2303  2584.7996  227.1631
 2304  2585.8394  222.4357
 2305  2586.8801  224.9005
 2306  2587.9217  229.8390
 2307  2588.9641  230.7143
 2308  2590.0074  232.0635
 2309  2591.0515  231.9992
 2310  2592.0965  231.7667
 2311  2593.1424  232.0806
 2312  2594.1891  232.0696
 2313  2595.2367  232.0836
 2314  2596.2852  232.4313
 2315  2597.3345  232.5271
 2316  2598.3847  232.8334
 2317  2599.4358  233.0073
 2318  2600.4877  232.9031
 2319  2601.5405  232.8199
 2320  2602.5942  232.9551
 2321  2603.6488  233.0419
 2322  2604.7042  232.9517
 2323  2605.7605  232.9842
 2324  2606.8177  232.8108
 2325  2607.8758  232.9508
 2326  2608.9347  233.5482
 2327  2609.9945  233.7946
 2328  2611.0552  233.8586
 2329  2612.1168  233.9542
 2330  2613.1792  234.1090
 2331  2614.2426  234.2056
 2332  2615.3068  234.1924
 2333  2616.3719  234.2326
 2334  2617.4379  234.4221
 2335  2618.5048  234.4871
 2336  2619.5725  234.5364
 2337  2620.6412  234.5468
 2338  2621.7107  234.6558
 2339  2622.7812  234.8441
 2340  2623.8525  234.9463
 2341  2624.9247  235.1174
 2342  2625.9978  235.2929
 2343  2627.0718  235.3580
 2344  2628.1467  235.4194
 2345  2629.2225  235.4585
 2346  2630.2992  235.4622
 2347  2631.3768  235.5777
 2348  2632.4552  235.8361
 2349  2633.5346  236.0405
 2350  2634.6149  236.1045
 2351  2635.6961  236.2792
 2352  2636.7782  236.5103
 2353  2637.8612  236.7018
 2354  2638.9451  236.8618
 2355  2640.0299  237.0341
 2356  2641.1156  237.2201
 2357  2642.2022  237.3166
 2358  2643.2897  237.3305
 2359  2644.3782  237.5313
 2360  2645.4675  237.8430
 2361  2646.5578  238.0475
 2362  2647.6489  238.2534
 2363  2648.7410  238.4866
 2364  2649.8340  238.6870
 2365  2650.9279  238.8920
 2366  2652.0227  238.9749
 2367  2653.1185  238.9780
 2368  2654.2151  239.2659
 2369  2655.3127  239.6694
 2370  2656.4112  239.8626
 2371  2657.5106  239.7731
 2372  2658.6110  239.8802
 2373  2659.7122  240.3763
 2374  2660.8144  240.6535
 2375  2661.9175  240.8605
 2376  2663.0216  241.0267
 2377  2664.1266  241.0318
 2378  2665.2325  241.3273
 2379   649.3788   15.4915
 2380   682.2453   17.0208
 2381   682.5003   17.0340
 2382   682.7552   17.0472
 2383   683.0101   17.0604
 2384   683.2650   17.0737
 2385   683.5199   17.0869
 2386   683.7749   17.1002
 2387   684.0298   17.1135
 2388   684.2847   17.1268
 2389   684.5396   17.1401
 2390   684.7945   17.1535
 2391   685.0494   17.1668
 2392   685.3044   17.1802
 2393   685.5593   17.1936
 2394   685.8142   17.2069
 2395   686.0691   17.2203
 2396   686.3240   17.2338
 2397   686.5789   17.2472
 2398   686.8339   17.2606
 2399   687.0888   17.2741
 2400   687.3437   17.2875
 2401   728.7389   19.5088
 2402   727.7496   19.4567
 2403   782.2135   22.4018
 2404   782.5490   22.4210
 2405   782.8845   22.4403
 2406   783.2200   22.4596
 2407   783.5555   22.4789
 2408   783.8910   22.4982
 2409   784.2265   22.5175
 2410   784.5620   22.5369
 2411   784.8976   22.5562
 2412   785.2331   22.5756
 2413   785.5686   22.5950
 2414   785.9041   22.6144
 2415   786.2396   22.6338
 2416   786.5751   22.6533
 2417   786.9106   22.6727
 2418   787.2461   22.6922
 2419   787.5816   22.7116
 2420   787.9171   22.7311
 2421   788.2526   22.7506
 2422   788.5882   22.7702
 2423   788.9237   22.7897
 2424   852.8298   26.6779
 2425   851.1803   26.5747
 2426   904.1130   29.9824
 2427   904.4519   30.0051
 2428   904.7909   30.0278
 2429   905.1299   30.0506
 2430   905.4689   30.0733
 2431   905.8079   30.0961
 2432   906.1469   30.1188
 2433   906.4859   30.1416
 2434   906.8249   30.1644
 2435   907.1639   30.1872
 2436   907.5029   30.2100
 2437   907.8419   30.2329
 2438   908.1809   30.2557
 2439   908.5199   30.2786
 2440   908.8589   30.3014
 2441   909.1979   30.3243
 2442   909.5369   30.3472
 2443   909.8759   30.3702
 2444   910.2149   30.3931
 2445   910.5539   30.4160
 2446   910.8929   30.4390
 2447   974.6961   34.9686
 2448   973.4077   34.8739
 2449  1046.6403   40.3654
 2450  1047.0894   40.3996
 2451  1047.5384   40.4339
 2452  1047.9875   40.4682
 2453  1048.4366   40.5025
 2454  1048.8856   40.5368
 2455  1049.3347   40.5711
 2456  1049.7837   40.6054
 2457  1050.2328   40.6397
 2458  1050.6819   40.6740
 2459  1051.1309   40.7084
 2460  1051.5800   40.7427
 2461  1052.0291   40.7770
 2462  1052.4781   40.8114
 2463  1052.9272   40.8458
 2464  1053.3763   40.8801
 2465  1053.8253   40.9145
 2466  1054.2744   40.9489
 2467  1054.7234   40.9833
 2468  1055.1725   41.0177
 2469  1055.6216   41.0521
 2470  1137.1507   47.4320
 2471  1137.6723   47.4737
 2472  1138.1940   47.5154
 2473  1138.7157   47.5571
 2474  1139.2374   47.5988
 2475  1139.7591   47.6405
 2476  1140.2808   47.6822
 2477  1140.8025   47.7239
 2478  1141.3241   47.7657
 2479  1141.8458   47.8074
 2480  1142.3675   47.8492
 2481  1142.8892   47.8909
 2482  1143.4109   47.9327
 2483  1143.9326   47.9745
 2484  1144.4543   48.0163
 2485  1144.9759   48.0581
 2486  1145.4976   48.0999
 2487  1146.0193   48.1417
 2488  1146.5410   48.1835
 2489  1147.0627   48.2254
 2490  1147.5844   48.2672
 2491  1148.1061   48.3091
 2492  1148.6277   48.3509
 2493  1149.1494   48.3928
 2494  1149.6711   48.4347
 2495  1150.1928   48.4766
 2496  1150.7145   48.5185
 2497  1151.2362   48.5604
 2498  1151.7579   48.6023
 2499  1152.2796   48.6442
 2500  1152.8012   48.6861
 2501  1153.3229   48.7281
 2502  1153.8446   48.7700
 2503  1154.3663   48.8120
 2504  1154.8880   48.8539
 2505  1155.4097   48.8959
 2506  1155.9314   48.9379
 2507  1156.4530   48.9798
 2508  1156.9747   49.0218
 2509  1157.4964   49.0638
 2510  1158.0181   49.1058
 2511  1158.5398   49.1479
 2512  1159.0615   49.1899
 2513  1159.5832   49.2319
 2514  1160.1048   49.2740
 2515  1160.6265   49.3160
 2516  1161.1482   49.3581
 2517  1161.6699   49.4001
 2518  1162.1916   49.4422
 2519  1162.7133   49.4843
 2520  1163.2350   49.5264
 2521  1163.7566   49.5684
 2522  1164.2783   49.6105
 2523  1164.8000   49.6526
 2524  1165.3217   49.6948
 2525  1165.8434   49.7369
 2526  1166.3651   49.7790
 2527  1166.8868   49.8211
 2528  1167.4084   49.8633
 2529  1167.9301   49.9054
 2530  1168.4518   49.9476
 2531  1168.9735   49.9897
 2532  1169.4952   50.0319
 2533  1170.0169   50.0741
 2534  1170.5386   50.1163
 2535  1171.0602   50.1585
 2536  1171.5819   50.2007
 2537  1172.1036   50.2429
 2538  1172.6253   50.2851
 2539  1173.1470   50.3273
 2540  1173.6687   50.3695
 2541  1174.1904   50.4117
 2542  1174.7121   50.4540
 2543  1175.2337   50.4962
 2544  1175.7554   50.5385
 2545  1176.2771   50.5807
 2546  1176.7988   50.6230
 2547  1177.3205   50.6653
 2548  1177.8422   50.7075
 2549  1178.3639   50.7498
 2550  1178.8855   50.7921
 2551  1179.4072   50.8344
 2552  1179.9289   50.8767
 2553  1180.4506   50.9190
 2554  1180.9723   50.9613
 2555  1181.4940   51.0036
 2556  1182.0157   51.0459
 2557  1182.5373   51.0883
 2558  1183.0590   51.1306
 2559  1183.5807   51.1729
 2560  1184.1024   51.2153
 2561  1184.6241   51.2576
 2562  1185.1458   51.3000
 2563  1185.6675   51.3424
 2564  1186.1891   51.3847
 2565  1186.7108   51.4271
 2566  1187.2325   51.4695
 2567  1187.7542   51.5118
 2568  1188.2759   51.5542
 2569  1188.7976   51.5966
 2570  1189.3193   51.6390
 2571  1189.8409   51.6814
 2572  1190.3626   51.7238
 2573  1190.8843   51.7663
 2574  1191.4060   51.8087
 2575  1191.9277   51.8511
 2576  1192.4494   51.8935
 2577  1192.9711   51.9360
 2578  1193.4928   51.9784
 2579  1194.0144   52.0208
 2580  1194.5361   52.0633
 2581  1195.0578   52.1057
 2582  1195.5795   52.1482
 2583  1196.1012   52.1907
 2584  1196.6229   52.2331
 2585  1197.1446   52.2756
 2586  1197.6662   52.3181
 2587  1198.1879   52.3606
 2588  1198.7096   52.4031
 2589  1199.2313   52.4455
 2590  1199.7530   52.4880
 2591  1200.2747   52.5305
 2592  1200.7964   52.5730
 2593  1201.3180   52.6155
 2594  1201.8397   52.6581
 2595  1202.3614   52.7006
 2596  1202.8831   52.7431
 2597  1203.4048   52.7856
 2598  1203.9265   52.8282
 2599  1204.4482   52.8707
 2600  1204.9698   52.9132
 2601  1205.4915   52.9558
 2602  1206.0132   52.9983
 2603  1206.5349   53.0409
 2604  1207.0566   53.0834
 2605  1207.5783   53.1260
 2606  1208.1000   53.1685
 2607  1208.6216   53.2111
 2608  1209.1433   53.2536
 2609  1209.6650   53.2962
 2610  1210.1867   53.3388
 2611  1210.7084   53.3814
 2612  1211.2301   53.4240
 2613  1211.7518   53.4665
 2614  1212.2734   53.5091
 2615  1212.7951   53.5517
 2616  1213.3168   53.5943
 2617  1213.8385   53.6369
 2618  1214.3602   53.6795
 2619  1214.8819   53.7221
 2620  1215.4036   53.7647
 2621  1215.9253   53.8073
 2622  1216.4469   53.8499
 2623  1273.1171   58.4885
 2624  1273.6517   58.5323
 2625  1274.1862   58.5761
 2626  1274.7208   58.6199
 2627  1275.2553   58.6637
 2628  1275.7898   58.7076
 2629  1276.3244   58.7514
 2630  1276.8589   58.7952
 2631  1277.3934   58.8390
 2632  1277.9280   58.8829
 2633  1278.4625   58.9267
 2634  1278.9971   58.9706
 2635  1279.5316   59.0144
 2636  1280.0661   59.0582
 2637  1280.6007   59.1021
 2638  1281.1352   59.1459
 2639  1281.6697   59.1898
 2640  1282.2043   59.2336
 2641  1282.7388   59.2775
 2642  1283.2733   59.3213
 2643  1283.8079   59.3652
 2644  1339.4668   63.9532
 2645  1337.6479   63.8024
 2646  1443.6407   72.7636
 2647  1444.2138   72.8132
 2648  1444.7868   72.8627
 2649  1445.3598   72.9123
 2650  1445.9328   72.9618
 2651  1446.5059   73.0114
 2652  1447.0789   73.0610
 2653  1447.6519   73.1105
 2654  1448.2249   73.1601
 2655  1448.7980   73.2097
 2656  1449.3710   73.2593
 2657  1449.9440   73.3089
 2658  1450.5171   73.3585
 2659  1451.0901   73.4081
 2660  1451.6631   73.4577
 2661  1452.2361   73.5073
 2662  1452.8092   73.5569
 2663  1453.3822   73.6065
 2664  1453.9552   73.6562
 2665  1454.5282   73.7058
 2666  1455.1013   73.7554
 2667  1455.6743   73.8050
 2668  1456.2473   73.8546
 2669  1456.8204   73.9042
 2670  1457.3934   73.9539
 2671  1457.9664   74.0035
 2672  1458.5394   74.0531
 2673  1459.1125   74.1027
 2674  1459.6855   74.1523
 2675  1527.6380   79.9138
 2676  1528.2786   79.9657
 2677  1528.9191   80.0155
 2678  1529.5597   80.0728
 2679  1530.2002   80.1265
 2680  1530.8408   80.1722
 2681  1531.4814   80.2236
 2682  1532.1219   80.2648
 2683  1532.7625   80.2870
 2684  1533.4030   80.3177
 2685  1534.0436   80.3591
 2686  1534.6842   80.4038
 2687  1535.3247   80.4360
 2688  1535.9653   80.4602
 2689  1536.6058   80.4757
 2690  1537.2464   80.4684
 2691  1537.8869   80.4754
 2692  1538.5275   80.5095
 2693  1539.1681   80.5512
 2694  1539.8086   80.5922
 2695  1540.4492   80.6481
 2696  1614.5928   87.4438
 2697  2165.8590  156.4331
 2698  2166.7271  156.5928
 2699  2167.5952  159.3939
 2700  2168.4634  160.0102
 2701  2169.3315  157.5659
 2702  2170.1996  158.4247
 2703  2171.0677  160.4099
 2704  2171.9358  158.8366
 2705  2172.8039  157.7659
 2706  2173.6720  158.7127
 2707  2174.5401  160.7792
 2708  2175.4083  159.4217
 2709  2176.2764  157.7667
 2710  2177.1445  160.2977
 2711  2178.0126  160.7590
 2712  2178.8807  158.4033
 2713  2179.7488  158.5264
 2714  2180.6169  159.4802
 2715  2326.0761  187.6469
 2716  2298.8845  181.9877
 2717  2423.8108  211.6534
 2718  2424.7836  211.6925
 2719  2425.7563  211.9890
 2720  2426.7291  212.3322
 2721  2427.7018  212.5655
 2722  2428.6746  212.8295
 2723  2429.6473  213.0542
 2724  2430.6200  213.2277
 2725  2431.5928  212.1647
 2726  2432.5655  211.3193
 2727  2433.5383  212.7216
 2728  2434.5110  213.9871
 2729  2435.4838  214.2713
 2730  2436.4565  214.5194
 2731  2437.4293  214.0997
 2732  2438.4020  214.1117
 2733  2439.3748  214.9129
 2734  2440.3475  215.1518
 2735  2441.3203  215.3004
 2736  2442.2930  215.4307
 2737  2443.2658  215.3981
 2738  2444.2385  215.5007
 2739  2445.2113  214.5311
 2740  2570.8617  226.6858
 2741  2540.8848  226.8470
 2742  2666.3257  241.6059
 2743  2667.4188  241.7480
 2744  2668.5120  241.2439
 2745  2669.6051  239.8041
 2746  2670.6983  240.6108
 2747  2671.7914  241.0104
 2748  2672.8846  238.9283
 2749  2673.9778  239.1214
 2750  2675.0709  241.5033
 2751  2676.1641  242.7028
 2752  2677.2572  243.3164
 2753  2678.3504  244.0787
 2754  2679.4435  244.4230
 2755  2680.5367  244.4791
 2756  2681.6298  244.5847
 2757  2682.7230  244.8652
 2758  2683.8161  244.7943
 2759  2684.9093  244.4246
 2760  2686.0024  244.1529
 2761  2687.0956  244.6355
 2762  2688.1888  244.9552
 2763  2689.2819  244.9112
 2764  2690.3751  244.8334
 2765  2691.4682  243.6795
 2766  2692.5614  244.4233
 2767  2693.6545  246.1107
 2768  2694.7477  246.2425
 2769  2695.8408  245.8625
 2770  2696.9340  246.0170
 2771  2698.0271  246.4023
 2772  2699.1203  246.8606
 2773  2700.2135  247.3593
 2774  2701.3066  247.4715
 2775  2702.3998  246.4968
 2776  2703.4929  242.7561
 2777  2704.5861  243.1129
 2778  2705.6792  247.0787
 2779  2706.7724  248.1943
 2780  2707.8655  248.4454
 2781  2708.9587  248.7245
 2782  2710.0518  249.0087
 2783  2711.1450  249.1484
 2784  2712.2381  249.1492
 2785  2713.3313  249.0140
 2786  2714.4245  246.5128
 2787  2715.5176  244.3568
 2788  2716.6108  246.4883
 2789  2717.7039  245.6517
 2790  2718.7971  244.9522
 2791  2719.8902  247.9582
 2792  2720.9834  250.0042
 2793  2722.0765  250.1176
 2794  2723.1697  248.7682
 2795  2724.2628  248.7505
 2796  2725.3560  249.8363
 2797  2726.4491  249.8470
 2798  2727.5423  250.2884
 2799  2728.6355  250.6615
 2800  2729.7286  250.7620
 2801  2730.8218  250.9215
 2802  2731.9149  250.5410
 2803  2733.0081  249.4782
 2804  2734.1012  250.3434
 2805  2735.1944  251.7535
 2806  2736.2875  251.9273
 2807  2737.3807  251.9911
 2808  2738.4738  252.0946
 2809  2739.5670  252.2071
 2810  2740.6601  252.1483
 2811  2741.7533  252.3152
 2812  2742.8465  252.1358
 2813  2743.9396  251.9986
 2814  2745.0328  252.0887
 2815  2746.1259  250.1434
 2816  2747.2191  250.2571
 2817  2748.3122  252.2943
 2818  2749.4054  252.9057
 2819  2750.4985  253.2944
 2820  2751.5917  253.6230
 2821  2752.6848  253.8818
 2822  2753.7780  253.4740
 2823  2754.8712  253.5817
 2824  2755.9643  254.4001
 2825  2757.0575  254.6483
 2826  2758.1506  254.5587
 2827  2759.2438  254.2694
 2828  2760.3369  254.5558
 2829  2761.4301  255.1043
 2830  2762.5232  255.2964
 2831  2763.6164  255.3877
 2832  2764.7095  255.5290
 2833  2765.8027  255.5974
 2834  2766.8958  255.6871
