! AIRS solar data file for AIRS SRF 31 Mar 2008 m150
!     Tef = 156.339 K, yoffset = -15.0 um
! Data for 649-1614 cm-1 comes from M.P. Thekaekara, 1973 Solar
! Energy v.14 p.109-127 (supplied to us by Chris Barnet).  The ~80
! cm-1 point spacing data has been interpolated to the AIRS
! channel freqs and converted to W/(m2.sr.cm-1).
!
! Data for 2181-2665 cm-1 comes from ATMOS Solar Spectra, and was
! supplied to us by ATMOS Principal Investigator Michael Gunson.
! In particular we used the file "atmos_corrected_solar.mat".
! This data was then directly convolved with the estimated AIRS
! SRFs for each channel to approximate the effective AIRS solar.
!
!chan   frequency    solar
!---- ----------- --------
    1   649.6268   15.5014
    2   649.8652   15.5114
    3   650.1038   15.5215
    4   650.3426   15.5313
    5   650.5816   15.5409
    6   650.8208   15.5508
    7   651.0602   15.5610
    8   651.2998   15.5712
    9   651.5395   15.5810
   10   651.7795   15.5907
   11   652.0196   15.6008
   12   652.2599   15.6112
   13   652.5004   15.6214
   14   652.7411   15.6312
   15   652.9820   15.6411
   16   653.2231   15.6515
   17   653.4644   15.6620
   18   653.7059   15.6722
   19   653.9475   15.6821
   20   654.1893   15.6922
   21   654.4314   15.7028
   22   654.6736   15.7133
   23   654.9160   15.7236
   24   655.1586   15.7336
   25   655.4014   15.7440
   26   655.6444   15.7547
   27   655.8876   15.7653
   28   656.1310   15.7756
   29   656.3745   15.7859
   30   656.6183   15.7965
   31   656.8623   15.8073
   32   657.1064   15.8179
   33   657.3507   15.8283
   34   657.5953   15.8389
   35   657.8400   15.8497
   36   658.0849   15.8606
   37   658.3300   15.8712
   38   658.5753   15.8818
   39   658.8208   15.8926
   40   659.0665   15.9036
   41   659.3124   15.9145
   42   659.5585   15.9252
   43   659.8048   15.9360
   44   660.0513   15.9471
   45   660.2979   15.9581
   46   660.5448   15.9691
   47   660.7919   15.9800
   48   661.0391   15.9911
   49   661.2866   16.0023
   50   661.5342   16.0134
   51   661.7821   16.0245
   52   662.0301   16.0356
   53   662.2784   16.0469
   54   662.5268   16.0582
   55   662.7755   16.0694
   56   663.0243   16.0806
   57   663.2733   16.0920
   58   663.5226   16.1034
   59   663.7720   16.1149
   60   664.0216   16.1262
   61   664.2714   16.1377
   62   664.5215   16.1492
   63   664.7717   16.1608
   64   665.0221   16.1723
   65   665.2727   16.1839
   66   665.5236   16.1955
   67   665.7746   16.2072
   68   666.0258   16.2190
   69   666.2772   16.2306
   70   666.5289   16.2423
   71   666.7807   16.2542
   72   667.0327   16.2661
   73   667.2849   16.2780
   74   667.5374   16.2898
   75   667.7900   16.3018
   76   668.0428   16.3138
   77   668.2958   16.3258
   78   668.5491   16.3378
   79   668.8025   16.3499
   80   669.0562   16.3620
   81   669.3100   16.3742
   82   669.5641   16.3863
   83   669.8183   16.3985
   84   670.0728   16.4108
   85   670.3274   16.4230
   86   670.5823   16.4354
   87   670.8373   16.4477
   88   671.0926   16.4601
   89   671.3481   16.4724
   90   671.6037   16.4849
   91   671.8596   16.4974
   92   672.1157   16.5099
   93   672.3720   16.5224
   94   672.6285   16.5350
   95   672.8852   16.5477
   96   673.1421   16.5603
   97   673.3992   16.5729
   98   673.6566   16.5856
   99   673.9141   16.5984
  100   674.1718   16.6112
  101   674.4298   16.6240
  102   674.6879   16.6367
  103   674.9463   16.6496
  104   675.2048   16.6626
  105   675.4636   16.6754
  106   675.7226   16.6883
  107   675.9818   16.7013
  108   676.2412   16.7144
  109   676.5008   16.7275
  110   676.7606   16.7405
  111   677.0206   16.7536
  112   677.2808   16.7667
  113   677.5413   16.7799
  114   677.8019   16.7931
  115   678.0628   16.8063
  116   678.3239   16.8195
  117   678.5851   16.8328
  118   678.8466   16.8462
  119   679.1083   16.8594
  120   679.3703   16.8728
  121   679.6324   16.8862
  122   679.8947   16.8996
  123   680.1573   16.9131
  124   680.4200   16.9266
  125   680.6830   16.9401
  126   680.9462   16.9536
  127   681.2096   16.9672
  128   681.4732   16.9808
  129   681.7370   16.9944
  130   682.0010   17.0081
  131   687.6094   17.3016
  132   687.8787   17.3158
  133   688.1482   17.3301
  134   688.4179   17.3444
  135   688.6878   17.3587
  136   688.9580   17.3730
  137   689.2284   17.3873
  138   689.4990   17.4018
  139   689.7698   17.4162
  140   690.0409   17.4306
  141   690.3121   17.4450
  142   690.5836   17.4595
  143   690.8553   17.4740
  144   691.1273   17.4885
  145   691.3994   17.5030
  146   691.6718   17.5176
  147   691.9444   17.5323
  148   692.2172   17.5469
  149   692.4902   17.5614
  150   692.7635   17.5761
  151   693.0370   17.5909
  152   693.3107   17.6055
  153   693.5846   17.6201
  154   693.8587   17.6349
  155   694.1331   17.6497
  156   694.4077   17.6645
  157   694.6825   17.6792
  158   694.9576   17.6940
  159   695.2328   17.7089
  160   695.5083   17.7238
  161   695.7840   17.7386
  162   696.0600   17.7535
  163   696.3361   17.7684
  164   696.6125   17.7834
  165   696.8892   17.7983
  166   697.1660   17.8132
  167   697.4431   17.8282
  168   697.7204   17.8432
  169   697.9979   17.8582
  170   698.2756   17.8733
  171   698.5536   17.8883
  172   698.8318   17.9034
  173   699.1103   17.9185
  174   699.3889   17.9336
  175   699.6678   17.9487
  176   699.9469   17.9638
  177   700.2263   17.9790
  178   700.5059   17.9941
  179   700.7856   18.0093
  180   701.0657   18.0245
  181   701.3459   18.0397
  182   701.6264   18.0549
  183   701.9072   18.0702
  184   702.1881   18.0854
  185   702.4693   18.1007
  186   702.7507   18.1160
  187   703.0324   18.1313
  188   703.3142   18.1466
  189   703.5964   18.1619
  190   703.8787   18.1772
  191   704.1613   18.1926
  192   704.4441   18.2080
  193   704.7271   18.2233
  194   705.0104   18.2387
  195   705.2939   18.2541
  196   705.5776   18.2695
  197   705.8616   18.2849
  198   706.1458   18.3003
  199   706.4302   18.3158
  200   706.7149   18.3312
  201   706.9998   18.3467
  202   707.2849   18.3621
  203   707.5703   18.3776
  204   707.8559   18.3932
  205   708.1418   18.4086
  206   708.4278   18.4241
  207   708.7142   18.4396
  208   709.0007   18.4552
  209   709.2875   18.4707
  210   709.5745   18.4862
  211   709.8618   18.5018
  212   710.1493   18.5174
  213   710.4370   18.5330
  214   710.7250   18.5485
  215   711.0132   18.5640
  216   711.3017   18.5797
  217   711.5904   18.5954
  218   711.8793   18.6109
  219   712.1685   18.6264
  220   712.4579   18.6421
  221   712.7475   18.6578
  222   713.0374   18.6733
  223   713.3275   18.6889
  224   713.6179   18.7047
  225   713.9085   18.7203
  226   714.1993   18.7358
  227   714.4904   18.7515
  228   714.7818   18.7673
  229   715.0733   18.7829
  230   715.3652   18.7985
  231   715.6572   18.8142
  232   715.9495   18.8299
  233   716.2420   18.8455
  234   716.5348   18.8611
  235   716.8279   18.8769
  236   717.1211   18.8926
  237   717.4147   18.9083
  238   717.7084   18.9239
  239   718.0024   18.9396
  240   718.2967   18.9554
  241   718.5911   18.9711
  242   718.8859   18.9867
  243   719.1809   19.0024
  244   719.4761   19.0183
  245   719.7716   19.0340
  246   720.0673   19.0496
  247   720.3632   19.0654
  248   720.6594   19.0813
  249   720.9559   19.0970
  250   721.2526   19.1126
  251   721.5496   19.1284
  252   721.8468   19.1444
  253   722.1442   19.1601
  254   722.4419   19.1756
  255   722.7399   19.1916
  256   723.0380   19.2077
  257   723.3365   19.2232
  258   723.6352   19.2389
  259   723.9341   19.2549
  260   724.2333   19.2711
  261   724.5327   19.2865
  262   724.8324   19.3021
  263   725.1324   19.3185
  264   725.4326   19.3345
  265   725.7330   19.3498
  266   726.0337   19.3657
  267   726.3346   19.3821
  268   726.6358   19.3979
  269   726.9373   19.4134
  270   727.2390   19.4295
  271   727.5409   19.4460
  272   727.8431   19.4616
  273   728.1456   19.4771
  274   728.4483   19.4935
  275   728.0641   19.4732
  276   728.3665   19.4892
  277   728.6691   19.5052
  278   728.9720   19.5211
  279   729.2751   19.5370
  280   729.5785   19.5531
  281   729.8821   19.5692
  282   730.1860   19.5851
  283   730.4901   19.6010
  284   730.7945   19.6172
  285   731.0992   19.6333
  286   731.4040   19.6493
  287   731.7092   19.6653
  288   732.0146   19.6814
  289   732.3202   19.6975
  290   732.6261   19.7137
  291   732.9323   19.7296
  292   733.2387   19.7458
  293   733.5453   19.7620
  294   733.8523   19.7781
  295   734.1594   19.7941
  296   734.4669   19.8104
  297   734.7745   19.8267
  298   735.0825   19.8429
  299   735.3907   19.8589
  300   735.6991   19.8751
  301   736.0078   19.8916
  302   736.3168   19.9077
  303   736.6260   19.9238
  304   736.9355   19.9402
  305   737.2452   19.9567
  306   737.5552   19.9728
  307   737.8655   19.9890
  308   738.1760   20.0055
  309   738.4868   20.0220
  310   738.7978   20.0382
  311   739.1091   20.0545
  312   739.4206   20.0710
  313   739.7324   20.0875
  314   740.0445   20.1038
  315   740.3568   20.1201
  316   740.6694   20.1367
  317   740.9822   20.1533
  318   741.2953   20.1697
  319   741.6087   20.1860
  320   741.9223   20.2027
  321   742.2362   20.2194
  322   742.5504   20.2358
  323   742.8648   20.2522
  324   743.1795   20.2689
  325   743.4944   20.2857
  326   743.8096   20.3021
  327   744.1251   20.3187
  328   744.4408   20.3355
  329   744.7568   20.3522
  330   745.0731   20.3688
  331   745.3896   20.3855
  332   745.7064   20.4024
  333   746.0235   20.4191
  334   746.3408   20.4357
  335   746.6584   20.4526
  336   746.9762   20.4695
  337   747.2944   20.4862
  338   747.6128   20.5030
  339   747.9314   20.5200
  340   748.2503   20.5370
  341   748.5695   20.5537
  342   748.8890   20.5706
  343   749.2087   20.5878
  344   749.5287   20.6047
  345   749.8490   20.6216
  346   750.1695   20.6386
  347   750.4903   20.6558
  348   750.8114   20.6728
  349   751.1327   20.6897
  350   751.4543   20.7070
  351   751.7762   20.7242
  352   752.0984   20.7412
  353   752.4208   20.7583
  354   752.7435   20.7757
  355   753.0665   20.7929
  356   753.3897   20.8100
  357   753.7132   20.8272
  358   754.0370   20.8447
  359   754.3610   20.8620
  360   754.6854   20.8792
  361   755.0100   20.8967
  362   755.3349   20.9141
  363   755.6600   20.9314
  364   755.9855   20.9488
  365   756.3111   20.9663
  366   756.6371   20.9840
  367   756.9634   21.0013
  368   757.2899   21.0188
  369   757.6167   21.0365
  370   757.9438   21.0541
  371   758.2712   21.0716
  372   758.5988   21.0893
  373   758.9267   21.1071
  374   759.2549   21.1246
  375   759.5834   21.1424
  376   759.9121   21.1603
  377   760.2411   21.1780
  378   760.5704   21.1958
  379   760.9000   21.2136
  380   761.2299   21.2315
  381   761.5600   21.2494
  382   761.8904   21.2673
  383   762.2211   21.2853
  384   762.5521   21.3033
  385   762.8834   21.3212
  386   763.2149   21.3394
  387   763.5467   21.3573
  388   763.8788   21.3755
  389   764.2112   21.3937
  390   764.5439   21.4118
  391   764.8768   21.4300
  392   765.2101   21.4483
  393   765.5436   21.4665
  394   765.8774   21.4848
  395   766.2115   21.5032
  396   766.5459   21.5216
  397   766.8805   21.5398
  398   767.2155   21.5584
  399   767.5507   21.5769
  400   767.8862   21.5953
  401   768.2220   21.6138
  402   768.5581   21.6325
  403   768.8944   21.6510
  404   769.2311   21.6695
  405   769.5680   21.6884
  406   769.9053   21.7071
  407   770.2428   21.7256
  408   770.5806   21.7444
  409   770.9187   21.7636
  410   771.2571   21.7822
  411   771.5957   21.8008
  412   771.9347   21.8200
  413   772.2740   21.8391
  414   772.6135   21.8576
  415   772.9533   21.8767
  416   773.2935   21.8962
  417   773.6339   21.9152
  418   773.9746   21.9338
  419   774.3156   21.9532
  420   774.6569   21.9728
  421   774.9985   21.9917
  422   775.3403   22.0107
  423   775.6825   22.0305
  424   776.0249   22.0498
  425   776.3677   22.0686
  426   776.7107   22.0882
  427   777.0541   22.1081
  428   777.3977   22.1270
  429   777.7417   22.1465
  430   778.0859   22.1664
  431   778.4304   22.1860
  432   778.7752   22.2052
  433   779.1203   22.2249
  434   779.4657   22.2450
  435   779.8115   22.2643
  436   780.1575   22.2839
  437   780.5038   22.3042
  438   780.8504   22.3240
  439   781.1973   22.3433
  440   781.5445   22.3634
  441   781.8919   22.3836
  442   789.2733   22.8101
  443   789.6271   22.8307
  444   789.9811   22.8513
  445   790.3355   22.8721
  446   790.6902   22.8928
  447   791.0452   22.9135
  448   791.4005   22.9344
  449   791.7561   22.9551
  450   792.1120   22.9759
  451   792.4682   22.9969
  452   792.8247   23.0179
  453   793.1815   23.0387
  454   793.5386   23.0598
  455   793.8961   23.0809
  456   794.2538   23.1018
  457   794.6119   23.1229
  458   794.9702   23.1442
  459   795.3289   23.1652
  460   795.6879   23.1865
  461   796.0472   23.2076
  462   796.4068   23.2288
  463   796.7667   23.2502
  464   797.1269   23.2714
  465   797.4875   23.2929
  466   797.8483   23.3143
  467   798.2095   23.3355
  468   798.5709   23.3570
  469   798.9327   23.3787
  470   799.2948   23.4000
  471   799.6572   23.4215
  472   800.0200   23.4433
  473   800.3830   23.4648
  474   800.7464   23.4863
  475   801.1100   23.5082
  476   801.4740   23.5299
  477   801.8383   23.5514
  478   802.2030   23.5733
  479   802.5679   23.5953
  480   802.9331   23.6168
  481   803.2987   23.6386
  482   803.6646   23.6610
  483   804.0308   23.6827
  484   804.3973   23.7043
  485   804.7642   23.7266
  486   805.1313   23.7488
  487   805.4988   23.7704
  488   805.8666   23.7925
  489   806.2347   23.8152
  490   806.6032   23.8369
  491   806.9719   23.8588
  492   807.3410   23.8816
  493   807.7104   23.9039
  494   808.0802   23.9255
  495   808.4502   23.9481
  496   808.8206   23.9708
  497   809.1913   23.9926
  498   809.5623   24.0151
  499   809.9336   24.0380
  500   810.3053   24.0600
  501   810.6773   24.0823
  502   811.0496   24.1053
  503   811.4223   24.1279
  504   811.7952   24.1499
  505   812.1685   24.1728
  506   812.5421   24.1958
  507   812.9161   24.2179
  508   813.2904   24.2406
  509   813.6650   24.2639
  510   814.0399   24.2861
  511   814.4151   24.3088
  512   814.7907   24.3321
  513   815.1667   24.3548
  514   815.5429   24.3773
  515   815.9195   24.4005
  516   816.2964   24.4237
  517   816.6736   24.4462
  518   817.0512   24.4692
  519   817.4291   24.4929
  520   817.8073   24.5154
  521   818.1859   24.5382
  522   818.5648   24.5620
  523   818.9440   24.5848
  524   819.3236   24.6077
  525   819.7035   24.6314
  526   820.0837   24.6546
  527   820.4643   24.6774
  528   820.8452   24.7010
  529   821.2264   24.7246
  530   821.6079   24.7473
  531   821.9899   24.7710
  532   822.3721   24.7947
  533   822.7547   24.8176
  534   823.1376   24.8411
  535   823.5208   24.8650
  536   823.9044   24.8882
  537   824.2884   24.9114
  538   824.6726   24.9357
  539   825.0572   24.9592
  540   825.4422   24.9823
  541   825.8275   25.0063
  542   826.2131   25.0300
  543   826.5991   25.0532
  544   826.9854   25.0775
  545   827.3720   25.1012
  546   827.7590   25.1246
  547   828.1463   25.1487
  548   828.5340   25.1727
  549   828.9220   25.1963
  550   829.3104   25.2203
  551   829.6991   25.2443
  552   830.0882   25.2681
  553   830.4776   25.2921
  554   830.8673   25.3163
  555   831.2574   25.3402
  556   831.6478   25.3641
  557   832.0386   25.3885
  558   832.4297   25.4124
  559   832.8212   25.4365
  560   833.2130   25.4608
  561   833.6052   25.4849
  562   833.9977   25.5091
  563   834.3906   25.5334
  564   834.7838   25.5577
  565   835.1774   25.5819
  566   835.5713   25.6062
  567   835.9655   25.6307
  568   836.3601   25.6550
  569   836.7551   25.6793
  570   837.1504   25.7039
  571   837.5461   25.7283
  572   837.9421   25.7527
  573   838.3385   25.7774
  574   838.7352   25.8018
  575   839.1323   25.8262
  576   839.5297   25.8511
  577   839.9275   25.8756
  578   840.3257   25.9000
  579   840.7242   25.9251
  580   841.1230   25.9497
  581   841.5222   25.9741
  582   841.9218   25.9993
  583   842.3217   26.0240
  584   842.7220   26.0485
  585   843.1227   26.0737
  586   843.5237   26.0985
  587   843.9250   26.1231
  588   844.3267   26.1484
  589   844.7288   26.1733
  590   845.1312   26.1981
  591   845.5340   26.2234
  592   845.9372   26.2484
  593   846.3407   26.2732
  594   846.7446   26.2985
  595   847.1488   26.3238
  596   847.5535   26.3487
  597   847.9584   26.3742
  598   848.3638   26.3993
  599   848.7694   26.4244
  600   849.1755   26.4499
  601   849.5819   26.4752
  602   849.9887   26.5004
  603   850.3959   26.5261
  604   850.8034   26.5514
  605   851.2113   26.5766
  606   851.6195   26.6025
  607   852.0282   26.6279
  608   852.4371   26.6532
  609   851.4992   26.5942
  610   851.8059   26.6138
  611   852.1128   26.6334
  612   852.4200   26.6518
  613   852.7274   26.6710
  614   853.0350   26.6910
  615   853.3429   26.7101
  616   853.6510   26.7287
  617   853.9594   26.7482
  618   854.2680   26.7681
  619   854.5768   26.7871
  620   854.8859   26.8059
  621   855.1952   26.8257
  622   855.5048   26.8455
  623   855.8146   26.8646
  624   856.1246   26.8835
  625   856.4349   26.9035
  626   856.7455   26.9233
  627   857.0563   26.9423
  628   857.3673   26.9617
  629   857.6786   26.9815
  630   857.9901   27.0012
  631   858.3019   27.0204
  632   858.6139   27.0400
  633   858.9261   27.0601
  634   859.2386   27.0795
  635   859.5514   27.0987
  636   859.8644   27.1187
  637   860.1776   27.1387
  638   860.4911   27.1582
  639   860.8048   27.1778
  640   861.1188   27.1979
  641   861.4330   27.2178
  642   861.7475   27.2372
  643   862.0622   27.2571
  644   862.3772   27.2773
  645   862.6924   27.2970
  646   863.0079   27.3167
  647   863.3236   27.3367
  648   863.6395   27.3570
  649   863.9558   27.3767
  650   864.2722   27.3965
  651   864.5889   27.4168
  652   864.9059   27.4370
  653   865.2231   27.4567
  654   865.5406   27.4768
  655   865.8583   27.4972
  656   866.1763   27.5173
  657   866.4945   27.5371
  658   866.8129   27.5575
  659   867.1317   27.5779
  660   867.4506   27.5979
  661   867.7699   27.6180
  662   868.0893   27.6387
  663   868.4091   27.6590
  664   868.7290   27.6790
  665   869.0493   27.6994
  666   869.3698   27.7200
  667   869.6905   27.7403
  668   870.0115   27.7604
  669   870.3328   27.7812
  670   870.6543   27.8018
  671   870.9760   27.8219
  672   871.2981   27.8424
  673   871.6203   27.8632
  674   871.9429   27.8838
  675   872.2656   27.9040
  676   872.5887   27.9248
  677   872.9120   27.9457
  678   873.2355   27.9662
  679   873.5593   27.9866
  680   873.8834   28.0076
  681   874.2077   28.0280
  682   874.5323   28.0492
  683   874.8572   28.0697
  684   875.1823   28.0909
  685   875.5076   28.1116
  686   875.8332   28.1321
  687   876.1591   28.1532
  688   876.4852   28.1743
  689   876.8116   28.1951
  690   877.1383   28.2159
  691   877.4652   28.2370
  692   877.7924   28.2582
  693   878.1198   28.2790
  694   878.4475   28.3000
  695   878.7755   28.3213
  696   879.1037   28.3426
  697   879.4322   28.3634
  698   879.7609   28.3845
  699   880.0899   28.4060
  700   880.4192   28.4272
  701   880.7487   28.4481
  702   881.0785   28.4696
  703   881.4085   28.4912
  704   881.7389   28.5122
  705   882.0695   28.5333
  706   882.4003   28.5551
  707   882.7314   28.5767
  708   883.0628   28.5977
  709   883.3944   28.6192
  710   883.7263   28.6411
  711   884.0585   28.6623
  712   884.3909   28.6835
  713   884.7236   28.7056
  714   885.0566   28.7275
  715   885.3898   28.7484
  716   885.7233   28.7701
  717   886.0571   28.7925
  718   886.3912   28.8140
  719   886.7255   28.8350
  720   887.0600   28.8575
  721   887.3949   28.8795
  722   887.7300   28.9006
  723   888.0653   28.9224
  724   888.4010   28.9451
  725   888.7369   28.9667
  726   889.0731   28.9880
  727   889.4095   29.0105
  728   889.7463   29.0330
  729   890.0833   29.0541
  730   890.4205   29.0763
  731   890.7581   29.0993
  732   891.0959   29.1210
  733   891.4340   29.1423
  734   891.7723   29.1651
  735   892.1109   29.1879
  736   892.4498   29.2091
  737   892.7890   29.2315
  738   893.1284   29.2546
  739   893.4681   29.2766
  740   893.8081   29.2983
  741   894.1484   29.3211
  742   894.4889   29.3439
  743   894.8297   29.3658
  744   895.1708   29.3883
  745   895.5122   29.4115
  746   895.8538   29.4336
  747   896.1957   29.4556
  748   896.5379   29.4789
  749   896.8804   29.5017
  750   897.2231   29.5235
  751   897.5661   29.5466
  752   897.9094   29.5701
  753   898.2530   29.5921
  754   898.5968   29.6146
  755   898.9409   29.6381
  756   899.2853   29.6611
  757   899.6300   29.6830
  758   899.9750   29.7065
  759   900.3202   29.7299
  760   900.6657   29.7522
  761   901.0115   29.7749
  762   901.3576   29.7989
  763   901.7039   29.8216
  764   902.0506   29.8442
  765   902.3975   29.8679
  766   902.7447   29.8914
  767   903.0921   29.9139
  768   903.4399   29.9372
  769   903.7879   29.9612
  770   911.2461   30.4631
  771   911.6009   30.4876
  772   911.9560   30.5111
  773   912.3114   30.5351
  774   912.6670   30.5593
  775   913.0230   30.5835
  776   913.3792   30.6080
  777   913.7358   30.6321
  778   914.0926   30.6563
  779   914.4497   30.6808
  780   914.8071   30.7053
  781   915.1648   30.7295
  782   915.5228   30.7540
  783   915.8810   30.7786
  784   916.2396   30.8030
  785   916.5984   30.8275
  786   916.9576   30.8523
  787   917.3170   30.8768
  788   917.6767   30.9013
  789   918.0367   30.9263
  790   918.3971   30.9510
  791   918.7577   30.9754
  792   919.1185   31.0003
  793   919.4797   31.0254
  794   919.8412   31.0503
  795   920.2030   31.0749
  796   920.5650   31.1000
  797   920.9274   31.1252
  798   921.2901   31.1498
  799   921.6530   31.1748
  800   922.0163   31.2005
  801   922.3798   31.2250
  802   922.7436   31.2501
  803   923.1078   31.2758
  804   923.4722   31.3007
  805   923.8369   31.3258
  806   924.2019   31.3516
  807   924.5673   31.3768
  808   924.9329   31.4019
  809   925.2988   31.4276
  810   925.6650   31.4529
  811   926.0315   31.4782
  812   926.3983   31.5039
  813   926.7654   31.5294
  814   927.1329   31.5547
  815   927.5006   31.5805
  816   927.8686   31.6063
  817   928.2369   31.6317
  818   928.6055   31.6575
  819   928.9744   31.6835
  820   929.3436   31.7089
  821   929.7132   31.7348
  822   930.0830   31.7612
  823   930.4531   31.7866
  824   930.8235   31.8123
  825   931.1942   31.8388
  826   931.5653   31.8645
  827   931.9366   31.8903
  828   932.3082   31.9170
  829   932.6802   31.9429
  830   933.0524   31.9685
  831   933.4250   31.9954
  832   933.7978   32.0214
  833   934.1710   32.0470
  834   934.5445   32.0740
  835   934.9182   32.1004
  836   935.2923   32.1260
  837   935.6667   32.1529
  838   936.0414   32.1796
  839   936.4164   32.2053
  840   936.7917   32.2321
  841   937.1673   32.2594
  842   937.5433   32.2850
  843   937.9195   32.3115
  844   938.2961   32.3391
  845   938.6729   32.3649
  846   939.0501   32.3915
  847   939.4276   32.4193
  848   939.8053   32.4454
  849   940.1834   32.4715
  850   940.5618   32.4997
  851   940.9406   32.5261
  852   941.3196   32.5522
  853   941.6989   32.5806
  854   942.0786   32.6070
  855   942.4586   32.6332
  856   942.8388   32.6614
  857   943.2194   32.6882
  858   943.6003   32.7144
  859   943.9816   32.7426
  860   944.3631   32.7699
  861   944.7450   32.7961
  862   945.1271   32.8242
  863   945.5096   32.8520
  864   945.8924   32.8778
  865   946.2755   32.9062
  866   946.6589   32.9339
  867   947.0427   32.9602
  868   947.4268   32.9883
  869   947.8111   33.0164
  870   948.1958   33.0429
  871   948.5809   33.0710
  872   948.9662   33.0993
  873   949.3519   33.1259
  874   949.7378   33.1540
  875   950.1241   33.1821
  876   950.5107   33.2090
  877   950.8977   33.2373
  878   951.2849   33.2655
  879   951.6725   33.2926
  880   952.0604   33.3209
  881   952.4486   33.3492
  882   952.8371   33.3766
  883   953.2260   33.4046
  884   953.6152   33.4334
  885   954.0047   33.4608
  886   954.3945   33.4887
  887   954.7847   33.5175
  888   955.1752   33.5453
  889   955.5660   33.5735
  890   955.9571   33.6021
  891   956.3485   33.6301
  892   956.7403   33.6584
  893   957.1324   33.6872
  894   957.5249   33.7151
  895   957.9176   33.7434
  896   958.3107   33.7727
  897   958.7041   33.8005
  898   959.0978   33.8289
  899   959.4919   33.8582
  900   959.8863   33.8864
  901   960.2810   33.9148
  902   960.6761   33.9441
  903   961.0714   33.9727
  904   961.4672   34.0009
  905   961.8632   34.0304
  906   962.2596   34.0591
  907   962.6563   34.0872
  908   963.0533   34.1171
  909   963.4507   34.1457
  910   963.8483   34.1742
  911   964.2464   34.2039
  912   964.6447   34.2326
  913   965.0434   34.2614
  914   965.4424   34.2910
  915   965.8418   34.3198
  916   966.2415   34.3488
  917   966.6415   34.3786
  918   967.0419   34.4076
  919   967.4426   34.4364
  920   967.8436   34.4666
  921   968.2450   34.4955
  922   968.6466   34.5247
  923   969.0487   34.5546
  924   969.4511   34.5834
  925   969.8538   34.6133
  926   970.2568   34.6429
  927   970.6602   34.6719
  928   971.0639   34.7023
  929   971.4680   34.7312
  930   971.8724   34.7612
  931   972.2771   34.7912
  932   972.6822   34.8205
  933   973.0877   34.8504
  934   973.4934   34.8808
  935   973.8995   34.9100
  936   974.3060   34.9401
  937   973.8304   34.9049
  938   974.2369   34.9349
  939   974.6436   34.9648
  940   975.0508   34.9947
  941   975.4582   35.0247
  942   975.8660   35.0547
  943   976.2742   35.0848
  944   976.6826   35.1148
  945   977.0915   35.1449
  946   977.5006   35.1751
  947   977.9101   35.2053
  948   978.3200   35.2353
  949   978.7301   35.2658
  950   979.1407   35.2962
  951   979.5515   35.3261
  952   979.9627   35.3569
  953   980.3743   35.3871
  954   980.7862   35.4174
  955   981.1984   35.4482
  956   981.6110   35.4783
  957   982.0239   35.5089
  958   982.4372   35.5398
  959   982.8508   35.5701
  960   983.2647   35.6006
  961   983.6790   35.6316
  962   984.0937   35.6620
  963   984.5087   35.6929
  964   984.9240   35.7237
  965   985.3397   35.7543
  966   985.7557   35.7851
  967   986.1721   35.8164
  968   986.5889   35.8468
  969   987.0059   35.8779
  970   987.4234   35.9090
  971   987.8412   35.9397
  972   988.2593   35.9711
  973   988.6777   36.0020
  974   989.0966   36.0329
  975   989.5158   36.0645
  976   989.9353   36.0953
  977   990.3552   36.1265
  978   990.7754   36.1583
  979   991.1960   36.1890
  980   991.6169   36.2204
  981   992.0382   36.2521
  982   992.4599   36.2830
  983   992.8819   36.3147
  984   993.3042   36.3462
  985   993.7269   36.3770
  986   994.1500   36.4094
  987   994.5734   36.4406
  988   994.9972   36.4717
  989   995.4213   36.5040
  990   995.8458   36.5353
  991   996.2707   36.5667
  992   996.6959   36.5991
  993   997.1215   36.6302
  994   997.5474   36.6621
  995   997.9736   36.6944
  996   998.4003   36.7254
  997   998.8273   36.7579
  998   999.2546   36.7898
  999   999.6824   36.8211
 1000  1000.1104   36.8538
 1001  1000.5389   36.8855
 1002  1000.9677   36.9172
 1003  1001.3968   36.9500
 1004  1001.8264   36.9816
 1005  1002.2562   37.0136
 1006  1002.6865   37.0463
 1007  1003.1171   37.0780
 1008  1003.5481   37.1105
 1009  1003.9794   37.1429
 1010  1004.4111   37.1748
 1011  1004.8432   37.2074
 1012  1005.2756   37.2398
 1013  1005.7084   37.2719
 1014  1006.1416   37.3048
 1015  1006.5751   37.3370
 1016  1007.0090   37.3694
 1017  1007.4433   37.4023
 1018  1007.8779   37.4346
 1019  1008.3129   37.4671
 1020  1008.7483   37.4999
 1021  1009.1840   37.5325
 1022  1009.6202   37.5652
 1023  1010.0566   37.5981
 1024  1010.4935   37.6307
 1025  1010.9307   37.6636
 1026  1011.3683   37.6964
 1027  1011.8063   37.7292
 1028  1012.2446   37.7622
 1029  1012.6833   37.7951
 1030  1013.1224   37.8281
 1031  1013.5618   37.8613
 1032  1014.0017   37.8940
 1033  1014.4419   37.9273
 1034  1014.8824   37.9605
 1035  1015.3234   37.9934
 1036  1015.7647   38.0269
 1037  1016.2064   38.0599
 1038  1016.6485   38.0931
 1039  1017.0909   38.1267
 1040  1017.5338   38.1596
 1041  1017.9770   38.1933
 1042  1018.4205   38.2266
 1043  1018.8645   38.2598
 1044  1019.3088   38.2937
 1045  1019.7536   38.3268
 1046  1020.1987   38.3605
 1047  1020.6441   38.3943
 1048  1021.0900   38.4273
 1049  1021.5362   38.4616
 1050  1021.9828   38.4951
 1051  1022.4298   38.5284
 1052  1022.8772   38.5629
 1053  1023.3250   38.5960
 1054  1023.7731   38.6301
 1055  1024.2217   38.6643
 1056  1024.6706   38.6974
 1057  1025.1199   38.7320
 1058  1025.5695   38.7658
 1059  1026.0196   38.7993
 1060  1026.4701   38.8343
 1061  1026.9209   38.8675
 1062  1027.3721   38.9018
 1063  1027.8237   38.9367
 1064  1028.2757   38.9697
 1065  1028.7281   39.0048
 1066  1029.1809   39.0389
 1067  1029.6340   39.0726
 1068  1030.0876   39.1079
 1069  1030.5415   39.1413
 1070  1030.9958   39.1759
 1071  1031.4506   39.2111
 1072  1031.9057   39.2445
 1073  1032.3612   39.2801
 1074  1032.8171   39.3141
 1075  1033.2733   39.3483
 1076  1033.7300   39.3840
 1077  1034.1871   39.4175
 1078  1034.6445   39.4527
 1079  1035.1024   39.4878
 1080  1035.5606   39.5218
 1081  1036.0193   39.5576
 1082  1036.4783   39.5917
 1083  1036.9377   39.6266
 1084  1037.3975   39.6623
 1085  1037.8578   39.6961
 1086  1038.3184   39.7319
 1087  1038.7794   39.7668
 1088  1039.2408   39.8012
 1089  1039.7026   39.8375
 1090  1040.1648   39.8716
 1091  1040.6274   39.9072
 1092  1041.0904   39.9428
 1093  1041.5538   39.9772
 1094  1042.0176   40.0135
 1095  1042.4819   40.0483
 1096  1042.9465   40.0836
 1097  1043.4115   40.1196
 1098  1043.8769   40.1542
 1099  1044.3427   40.1904
 1100  1044.8089   40.2257
 1101  1045.2755   40.2610
 1102  1045.7425   40.2974
 1103  1046.2100   40.3322
 1104  1056.0896   41.0880
 1105  1056.5654   41.1244
 1106  1057.0417   41.1610
 1107  1057.5184   41.1975
 1108  1057.9954   41.2341
 1109  1058.4729   41.2707
 1110  1058.9508   41.3074
 1111  1059.4291   41.3441
 1112  1059.9078   41.3809
 1113  1060.3869   41.4177
 1114  1060.8665   41.4545
 1115  1061.3464   41.4914
 1116  1061.8268   41.5283
 1117  1062.3076   41.5653
 1118  1062.7887   41.6023
 1119  1063.2703   41.6393
 1120  1063.7524   41.6765
 1121  1064.2348   41.7134
 1122  1064.7176   41.7508
 1123  1065.2009   41.7878
 1124  1065.6846   41.8252
 1125  1066.1687   41.8624
 1126  1066.6532   41.8997
 1127  1067.1381   41.9372
 1128  1067.6235   41.9744
 1129  1068.1093   42.0121
 1130  1068.5955   42.0494
 1131  1069.0821   42.0870
 1132  1069.5691   42.1247
 1133  1070.0566   42.1621
 1134  1070.5444   42.2000
 1135  1071.0327   42.2375
 1136  1071.5214   42.2753
 1137  1072.0106   42.3133
 1138  1072.5002   42.3507
 1139  1072.9901   42.3891
 1140  1073.4806   42.4265
 1141  1073.9714   42.4647
 1142  1074.4627   42.5028
 1143  1074.9543   42.5404
 1144  1075.4465   42.5792
 1145  1075.9390   42.6166
 1146  1076.4320   42.6552
 1147  1076.9254   42.6933
 1148  1077.4192   42.7313
 1149  1077.9134   42.7702
 1150  1078.4081   42.8077
 1151  1078.9032   42.8470
 1152  1079.3988   42.8847
 1153  1079.8948   42.9235
 1154  1080.3912   42.9622
 1155  1080.8880   43.0001
 1156  1081.3853   43.0396
 1157  1081.8830   43.0771
 1158  1082.3811   43.1170
 1159  1082.8797   43.1548
 1160  1083.3787   43.1939
 1161  1083.8781   43.2333
 1162  1084.3780   43.2710
 1163  1084.8783   43.3112
 1164  1085.3790   43.3491
 1165  1085.8802   43.3891
 1166  1086.3818   43.4276
 1167  1086.8839   43.4661
 1168  1087.3864   43.5062
 1169  1087.8893   43.5444
 1170  1088.3927   43.5845
 1171  1088.8965   43.6230
 1172  1089.4007   43.6627
 1173  1089.9054   43.7021
 1174  1090.4105   43.7414
 1175  1090.9161   43.7813
 1176  1091.4221   43.8196
 1177  1091.9286   43.8603
 1178  1092.4355   43.8990
 1179  1092.9428   43.9392
 1180  1093.4506   43.9788
 1181  1093.9588   44.0181
 1182  1094.4675   44.0584
 1183  1094.9766   44.0976
 1184  1095.4862   44.1380
 1185  1095.9962   44.1776
 1186  1096.5067   44.2177
 1187  1097.0176   44.2576
 1188  1097.5289   44.2975
 1189  1098.0408   44.3378
 1190  1098.5530   44.3776
 1191  1099.0657   44.4181
 1192  1099.5789   44.4581
 1193  1100.0925   44.4984
 1194  1100.6065   44.5388
 1195  1101.1210   44.5789
 1196  1101.6360   44.6196
 1197  1102.1514   44.6598
 1198  1102.6673   44.7004
 1199  1103.1836   44.7410
 1200  1103.7004   44.7815
 1201  1104.2176   44.8222
 1202  1104.7353   44.8629
 1203  1105.2534   44.9035
 1204  1105.7720   44.9444
 1205  1106.2911   44.9851
 1206  1106.8106   45.0261
 1207  1107.3306   45.0669
 1208  1107.8510   45.1080
 1209  1108.3719   45.1488
 1210  1108.8933   45.1900
 1211  1109.4151   45.2311
 1212  1109.9373   45.2721
 1213  1110.4601   45.3136
 1214  1110.9833   45.3545
 1215  1111.5069   45.3962
 1216  1112.0310   45.4371
 1217  1112.5556   45.4789
 1218  1113.0807   45.5201
 1219  1113.6062   45.5617
 1220  1114.1321   45.6033
 1221  1114.6586   45.6448
 1222  1115.1855   45.6865
 1223  1115.7129   45.7279
 1224  1116.2407   45.7701
 1225  1116.7690   45.8113
 1226  1117.2978   45.8537
 1227  1117.8270   45.8949
 1228  1118.3568   45.9376
 1229  1118.8869   45.9789
 1230  1119.4176   46.0215
 1231  1119.9487   46.0633
 1232  1120.4803   46.1054
 1233  1121.0124   46.1478
 1234  1121.5449   46.1897
 1235  1122.0780   46.2323
 1236  1122.6115   46.2742
 1237  1123.1454   46.3171
 1238  1123.6799   46.3590
 1239  1124.2148   46.4016
 1240  1124.7502   46.4443
 1241  1125.2860   46.4866
 1242  1125.8224   46.5295
 1243  1126.3592   46.5718
 1244  1126.8965   46.6149
 1245  1127.4343   46.6574
 1246  1127.9725   46.7004
 1247  1128.5113   46.7431
 1248  1129.0505   46.7860
 1249  1129.5902   46.8290
 1250  1130.1304   46.8719
 1251  1130.6710   46.9152
 1252  1131.2122   46.9580
 1253  1131.7538   47.0014
 1254  1132.2959   47.0444
 1255  1132.8385   47.0878
 1256  1133.3816   47.1310
 1257  1133.9252   47.1745
 1258  1134.4693   47.2177
 1259  1135.0138   47.2613
 1260  1135.5588   47.3047
 1261  1136.1043   47.3483
 1262  1136.6504   47.3918
 1263  1216.9888   53.8943
 1264  1217.4958   53.9354
 1265  1218.0033   53.9772
 1266  1218.5111   54.0184
 1267  1219.0194   54.0601
 1268  1219.5281   54.1017
 1269  1220.0372   54.1431
 1270  1220.5467   54.1852
 1271  1221.0567   54.2262
 1272  1221.5670   54.2687
 1273  1222.0778   54.3097
 1274  1222.5891   54.3521
 1275  1223.1007   54.3935
 1276  1223.6128   54.4356
 1277  1224.1253   54.4775
 1278  1224.6382   54.5191
 1279  1225.1516   54.5617
 1280  1225.6654   54.6029
 1281  1226.1796   54.6459
 1282  1226.6942   54.6870
 1283  1227.2093   54.7300
 1284  1227.7247   54.7716
 1285  1228.2407   54.8140
 1286  1228.7570   54.8563
 1287  1229.2738   54.8983
 1288  1229.7910   54.9411
 1289  1230.3087   54.9827
 1290  1230.8267   55.0260
 1291  1231.3452   55.0676
 1292  1231.8642   55.1107
 1293  1232.3835   55.1527
 1294  1232.9033   55.1956
 1295  1233.4236   55.2380
 1296  1233.9443   55.2806
 1297  1234.4654   55.3233
 1298  1234.9869   55.3658
 1299  1235.5089   55.4088
 1300  1236.0313   55.4512
 1301  1236.5541   55.4944
 1302  1237.0774   55.5368
 1303  1237.6012   55.5801
 1304  1238.1253   55.6226
 1305  1238.6499   55.6660
 1306  1239.1750   55.7085
 1307  1239.7004   55.7519
 1308  1240.2264   55.7947
 1309  1240.7527   55.8379
 1310  1241.2795   55.8810
 1311  1241.8068   55.9241
 1312  1242.3344   55.9674
 1313  1242.8626   56.0104
 1314  1243.3911   56.0541
 1315  1243.9201   56.0969
 1316  1244.4496   56.1408
 1317  1244.9795   56.1836
 1318  1245.5098   56.2276
 1319  1246.0406   56.2705
 1320  1246.5719   56.3145
 1321  1247.1035   56.3576
 1322  1247.6357   56.4015
 1323  1248.1682   56.4449
 1324  1248.7013   56.4886
 1325  1249.2347   56.5324
 1326  1249.7687   56.5758
 1327  1250.3030   56.6200
 1328  1250.8378   56.6633
 1329  1251.3731   56.7077
 1330  1251.9088   56.7509
 1331  1252.4450   56.7955
 1332  1252.9816   56.8388
 1333  1253.5187   56.8833
 1334  1254.0562   56.9270
 1335  1254.5942   56.9712
 1336  1255.1326   57.0153
 1337  1255.6715   57.0592
 1338  1256.2108   57.1037
 1339  1256.7506   57.1475
 1340  1257.2909   57.1922
 1341  1257.8316   57.2360
 1342  1258.3728   57.2808
 1343  1258.9144   57.3248
 1344  1259.4564   57.3695
 1345  1259.9990   57.4137
 1346  1260.5420   57.4583
 1347  1261.0854   57.5027
 1348  1261.6293   57.5474
 1349  1262.1737   57.5918
 1350  1262.7185   57.6366
 1351  1263.2638   57.6811
 1352  1263.8096   57.7261
 1353  1264.3558   57.7705
 1354  1264.9025   57.8156
 1355  1265.4496   57.8600
 1356  1265.9972   57.9054
 1357  1266.5453   57.9498
 1358  1267.0938   57.9952
 1359  1267.6428   58.0397
 1360  1268.1923   58.0851
 1361  1268.7422   58.1300
 1362  1269.2926   58.1751
 1363  1269.8435   58.2204
 1364  1270.3948   58.2652
 1365  1270.9466   58.3110
 1366  1271.4989   58.3554
 1367  1272.0516   58.4018
 1368  1272.6048   58.4459
 1369  1284.3649   59.4105
 1370  1284.9282   59.4575
 1371  1285.4920   59.5030
 1372  1286.0563   59.5500
 1373  1286.6211   59.5958
 1374  1287.1863   59.6426
 1375  1287.7520   59.6887
 1376  1288.3182   59.7354
 1377  1288.8849   59.7818
 1378  1289.4521   59.8284
 1379  1290.0198   59.8751
 1380  1290.5879   59.9216
 1381  1291.1565   59.9685
 1382  1291.7257   60.0150
 1383  1292.2953   60.0621
 1384  1292.8654   60.1086
 1385  1293.4359   60.1558
 1386  1294.0070   60.2024
 1387  1294.5786   60.2497
 1388  1295.1506   60.2963
 1389  1295.7232   60.3437
 1390  1296.2962   60.3905
 1391  1296.8697   60.4379
 1392  1297.4437   60.4848
 1393  1298.0182   60.5322
 1394  1298.5932   60.5794
 1395  1299.1687   60.6267
 1396  1299.7447   60.6742
 1397  1300.3212   60.7215
 1398  1300.8982   60.7691
 1399  1301.4757   60.8163
 1400  1302.0536   60.8642
 1401  1302.6321   60.9114
 1402  1303.2111   60.9594
 1403  1303.7905   61.0067
 1404  1304.3705   61.0548
 1405  1304.9510   61.1022
 1406  1305.5319   61.1504
 1407  1306.1134   61.1979
 1408  1306.6954   61.2462
 1409  1307.2778   61.2937
 1410  1307.8608   61.3421
 1411  1308.4443   61.3898
 1412  1309.0282   61.4383
 1413  1309.6127   61.4861
 1414  1310.1977   61.5345
 1415  1310.7832   61.5824
 1416  1311.3692   61.6311
 1417  1311.9557   61.6790
 1418  1312.5427   61.7276
 1419  1313.1302   61.7760
 1420  1313.7182   61.8245
 1421  1314.3068   61.8729
 1422  1314.8958   61.9217
 1423  1315.4853   61.9701
 1424  1316.0754   62.0189
 1425  1316.6660   62.0675
 1426  1317.2571   62.1164
 1427  1317.8486   62.1650
 1428  1318.4407   62.2141
 1429  1319.0334   62.2628
 1430  1319.6265   62.3119
 1431  1320.2201   62.3607
 1432  1320.8143   62.4100
 1433  1321.4090   62.4589
 1434  1322.0042   62.5083
 1435  1322.5999   62.5572
 1436  1323.1961   62.6067
 1437  1323.7928   62.6557
 1438  1324.3901   62.7054
 1439  1324.9879   62.7544
 1440  1325.5862   62.8042
 1441  1326.1850   62.8534
 1442  1326.7843   62.9032
 1443  1327.3842   62.9525
 1444  1327.9846   63.0025
 1445  1328.5855   63.0518
 1446  1329.1869   63.1019
 1447  1329.7889   63.1514
 1448  1330.3913   63.2015
 1449  1330.9943   63.2513
 1450  1331.5979   63.3012
 1451  1332.2019   63.3513
 1452  1332.8065   63.4012
 1453  1333.4116   63.4516
 1454  1334.0172   63.5014
 1455  1334.6234   63.5520
 1456  1335.2301   63.6018
 1457  1335.8373   63.6526
 1458  1336.4451   63.7024
 1459  1337.0534   63.7533
 1460  1337.6622   63.8034
 1461  1338.2715   63.8543
 1462  1338.8814   63.9046
 1463  1338.1764   63.8463
 1464  1338.6846   63.8883
 1465  1339.1931   63.9306
 1466  1339.7021   63.9728
 1467  1340.2115   64.0150
 1468  1340.7212   64.0574
 1469  1341.2314   64.0996
 1470  1341.7420   64.1421
 1471  1342.2530   64.1844
 1472  1342.7644   64.2269
 1473  1343.2763   64.2694
 1474  1343.7885   64.3118
 1475  1344.3011   64.3545
 1476  1344.8142   64.3971
 1477  1345.3276   64.4399
 1478  1345.8415   64.4826
 1479  1346.3558   64.5251
 1480  1346.8705   64.5681
 1481  1347.3856   64.6107
 1482  1347.9011   64.6538
 1483  1348.4170   64.6967
 1484  1348.9334   64.7393
 1485  1349.4501   64.7826
 1486  1349.9673   64.8255
 1487  1350.4849   64.8686
 1488  1351.0029   64.9115
 1489  1351.5213   64.9549
 1490  1352.0401   64.9977
 1491  1352.5594   65.0413
 1492  1353.0791   65.0844
 1493  1353.5991   65.1278
 1494  1354.1196   65.1713
 1495  1354.6406   65.2144
 1496  1355.1619   65.2582
 1497  1355.6837   65.3012
 1498  1356.2058   65.3453
 1499  1356.7284   65.3889
 1500  1357.2514   65.4320
 1501  1357.7749   65.4759
 1502  1358.2987   65.5193
 1503  1358.8230   65.5635
 1504  1359.3477   65.6069
 1505  1359.8728   65.6511
 1506  1360.3984   65.6945
 1507  1360.9243   65.7389
 1508  1361.4507   65.7825
 1509  1361.9776   65.8267
 1510  1362.5048   65.8706
 1511  1363.0325   65.9147
 1512  1363.5605   65.9590
 1513  1364.0891   66.0029
 1514  1364.6180   66.0473
 1515  1365.1474   66.0914
 1516  1365.6772   66.1359
 1517  1366.2074   66.1801
 1518  1366.7380   66.2246
 1519  1367.2691   66.2690
 1520  1367.8006   66.3135
 1521  1368.3326   66.3580
 1522  1368.8649   66.4025
 1523  1369.3977   66.4472
 1524  1369.9310   66.4917
 1525  1370.4646   66.5366
 1526  1370.9987   66.5812
 1527  1371.5332   66.6261
 1528  1372.0682   66.6709
 1529  1372.6036   66.7158
 1530  1373.1394   66.7607
 1531  1373.6757   66.8056
 1532  1374.2124   66.8508
 1533  1374.7495   66.8956
 1534  1375.2870   66.9410
 1535  1375.8250   66.9859
 1536  1376.3635   67.0313
 1537  1376.9023   67.0764
 1538  1377.4416   67.1217
 1539  1377.9814   67.1672
 1540  1378.5216   67.2123
 1541  1379.0622   67.2581
 1542  1379.6032   67.3032
 1543  1380.1447   67.3491
 1544  1380.6867   67.3943
 1545  1381.2290   67.4402
 1546  1381.7719   67.4857
 1547  1382.3151   67.5315
 1548  1382.8588   67.5772
 1549  1383.4030   67.6229
 1550  1383.9475   67.6690
 1551  1384.4926   67.7146
 1552  1385.0380   67.7608
 1553  1385.5839   67.8065
 1554  1386.1303   67.8529
 1555  1386.6771   67.8987
 1556  1387.2243   67.9450
 1557  1387.7720   67.9911
 1558  1388.3202   68.0374
 1559  1388.8688   68.0837
 1560  1389.4178   68.1299
 1561  1389.9673   68.1765
 1562  1390.5172   68.2227
 1563  1391.0676   68.2694
 1564  1391.6184   68.3157
 1565  1392.1697   68.3625
 1566  1392.7214   68.4089
 1567  1393.2736   68.4558
 1568  1393.8262   68.5024
 1569  1394.3793   68.5492
 1570  1394.9328   68.5960
 1571  1395.4868   68.6428
 1572  1396.0412   68.6898
 1573  1396.5961   68.7367
 1574  1397.1514   68.7838
 1575  1397.7072   68.8307
 1576  1398.2635   68.8781
 1577  1398.8202   68.9250
 1578  1399.3774   68.9725
 1579  1399.9350   69.0195
 1580  1400.4930   69.0670
 1581  1401.0516   69.1142
 1582  1401.6106   69.1618
 1583  1402.1700   69.2091
 1584  1402.7299   69.2568
 1585  1403.2903   69.3042
 1586  1403.8511   69.3520
 1587  1404.4124   69.3995
 1588  1404.9741   69.4474
 1589  1405.5363   69.4949
 1590  1406.0990   69.5431
 1591  1406.6621   69.5906
 1592  1407.2257   69.6388
 1593  1407.7897   69.6865
 1594  1408.3542   69.7349
 1595  1408.9192   69.7827
 1596  1409.4847   69.8311
 1597  1410.0506   69.8790
 1598  1410.6169   69.9276
 1599  1411.1838   69.9756
 1600  1411.7511   70.0242
 1601  1412.3188   70.0723
 1602  1412.8871   70.1211
 1603  1413.4558   70.1693
 1604  1414.0250   70.2181
 1605  1414.5946   70.2665
 1606  1415.1647   70.3154
 1607  1415.7353   70.3639
 1608  1416.3063   70.4129
 1609  1416.8779   70.4615
 1610  1417.4498   70.5107
 1611  1418.0223   70.5594
 1612  1418.5952   70.6086
 1613  1419.1687   70.6574
 1614  1419.7425   70.7068
 1615  1420.3169   70.7556
 1616  1420.8917   70.8051
 1617  1421.4670   70.8541
 1618  1422.0428   70.9037
 1619  1422.6191   70.9528
 1620  1423.1958   71.0025
 1621  1423.7730   71.0518
 1622  1424.3507   71.1015
 1623  1424.9288   71.1510
 1624  1425.5075   71.2008
 1625  1426.0866   71.2503
 1626  1426.6662   71.3003
 1627  1427.2463   71.3499
 1628  1427.8268   71.4000
 1629  1428.4079   71.4497
 1630  1428.9894   71.5000
 1631  1429.5714   71.5497
 1632  1430.1539   71.6002
 1633  1430.7368   71.6499
 1634  1431.3203   71.7006
 1635  1431.9042   71.7503
 1636  1432.4886   71.8012
 1637  1433.0736   71.8511
 1638  1433.6589   71.9021
 1639  1434.2448   71.9520
 1640  1434.8312   72.0031
 1641  1435.4180   72.0531
 1642  1436.0054   72.1045
 1643  1436.5932   72.1544
 1644  1437.1815   72.2059
 1645  1437.7703   72.2559
 1646  1438.3596   72.3077
 1647  1438.9494   72.3577
 1648  1439.5396   72.4096
 1649  1440.1304   72.4597
 1650  1440.7217   72.5117
 1651  1441.3134   72.5619
 1652  1441.9056   72.6139
 1653  1442.4984   72.6644
 1654  1443.0916   72.7163
 1655  1460.2829   74.2037
 1656  1460.8912   74.2570
 1657  1461.5000   74.3094
 1658  1462.1094   74.3624
 1659  1462.7192   74.4147
 1660  1463.3296   74.4678
 1661  1463.9404   74.5205
 1662  1464.5518   74.5735
 1663  1465.1637   74.6266
 1664  1465.7760   74.6793
 1665  1466.3889   74.7326
 1666  1467.0024   74.7854
 1667  1467.6163   74.8388
 1668  1468.2307   74.8916
 1669  1468.8456   74.9451
 1670  1469.4611   74.9980
 1671  1470.0771   75.0515
 1672  1470.6936   75.1046
 1673  1471.3106   75.1580
 1674  1471.9281   75.2112
 1675  1472.5461   75.2648
 1676  1473.1646   75.3180
 1677  1473.7837   75.3716
 1678  1474.4033   75.4250
 1679  1475.0234   75.4787
 1680  1475.6440   75.5321
 1681  1476.2651   75.5856
 1682  1476.8868   75.6394
 1683  1477.5090   75.6929
 1684  1478.1317   75.7468
 1685  1478.7549   75.8003
 1686  1479.3786   75.8542
 1687  1480.0029   75.9078
 1688  1480.6277   75.9617
 1689  1481.2530   76.0155
 1690  1481.8788   76.0694
 1691  1482.5052   76.1233
 1692  1483.1320   76.1772
 1693  1483.7594   76.2312
 1694  1484.3874   76.2851
 1695  1485.0158   76.3392
 1696  1485.6448   76.3931
 1697  1486.2743   76.4472
 1698  1486.9044   76.5012
 1699  1487.5350   76.5554
 1700  1488.1661   76.6094
 1701  1488.7977   76.6637
 1702  1489.4299   76.7178
 1703  1490.0626   76.7721
 1704  1490.6958   76.8263
 1705  1491.3296   76.8805
 1706  1491.9639   76.9348
 1707  1492.5987   76.9891
 1708  1493.2340   77.0434
 1709  1493.8699   77.0978
 1710  1494.5064   77.1521
 1711  1495.1433   77.2065
 1712  1495.7809   77.2609
 1713  1496.4189   77.3153
 1714  1497.0575   77.3697
 1715  1497.6966   77.4242
 1716  1498.3363   77.4787
 1717  1498.9765   77.5332
 1718  1499.6172   77.5878
 1719  1500.2585   77.6366
 1720  1500.9003   77.6797
 1721  1501.5427   77.7290
 1722  1502.1856   77.7936
 1723  1502.8290   77.8601
 1724  1503.4730   77.9178
 1725  1504.1176   77.9729
 1726  1504.7626   78.0259
 1727  1505.4083   78.0749
 1728  1506.0544   78.1316
 1729  1506.7012   78.1894
 1730  1507.3484   78.2476
 1731  1507.9962   78.3084
 1732  1508.6446   78.3734
 1733  1509.2935   78.4345
 1734  1509.9430   78.4877
 1735  1510.5930   78.5491
 1736  1511.2436   78.6044
 1737  1511.8947   78.6469
 1738  1512.5464   78.6973
 1739  1513.1986   78.7682
 1740  1513.8514   78.8304
 1741  1514.5047   78.8674
 1742  1515.1586   78.9131
 1743  1515.8130   78.9719
 1744  1516.4680   79.0194
 1745  1517.1236   79.0627
 1746  1517.7797   79.1084
 1747  1518.4364   79.1580
 1748  1519.0936   79.2103
 1749  1519.7514   79.2516
 1750  1520.4097   79.2908
 1751  1521.0686   79.3358
 1752  1521.7281   79.4016
 1753  1522.3881   79.4613
 1754  1523.0487   79.5040
 1755  1523.7099   79.5664
 1756  1524.3716   79.6350
 1757  1525.0338   79.6927
 1758  1525.6967   79.7457
 1759  1526.3601   79.8074
 1760  1527.0241   79.8636
 1761  1541.1167   80.6641
 1762  1541.7926   80.6408
 1763  1542.4691   80.7738
 1764  1543.1462   80.9012
 1765  1543.8238   80.9209
 1766  1544.5020   80.8843
 1767  1545.1808   80.9589
 1768  1545.8602   81.0916
 1769  1546.5402   81.1394
 1770  1547.2207   81.1862
 1771  1547.9019   81.2309
 1772  1548.5836   81.2773
 1773  1549.2659   81.3050
 1774  1549.9488   81.3364
 1775  1550.6322   81.4206
 1776  1551.3163   81.5255
 1777  1552.0009   81.5995
 1778  1552.6861   81.6917
 1779  1553.3719   81.7712
 1780  1554.0583   81.8406
 1781  1554.7453   81.9572
 1782  1555.4329   82.0386
 1783  1556.1211   82.1318
 1784  1556.8098   82.2644
 1785  1557.4992   82.4404
 1786  1558.1891   82.6060
 1787  1558.8796   82.7663
 1788  1559.5708   82.8763
 1789  1560.2625   82.9501
 1790  1560.9548   83.0996
 1791  1561.6477   83.2779
 1792  1562.3412   83.4491
 1793  1563.0353   83.5763
 1794  1563.7300   83.7036
 1795  1564.4253   83.8589
 1796  1565.1212   84.0591
 1797  1565.8177   84.1212
 1798  1566.5148   84.0362
 1799  1567.2125   84.2247
 1800  1567.9108   84.5185
 1801  1568.6097   84.6402
 1802  1569.3092   84.6340
 1803  1570.0093   84.6827
 1804  1570.7100   84.7831
 1805  1571.4113   84.5367
 1806  1572.1132   84.4095
 1807  1572.8157   84.6314
 1808  1573.5189   84.8256
 1809  1574.2226   85.1571
 1810  1574.9269   85.1626
 1811  1575.6319   85.0649
 1812  1576.3375   85.0366
 1813  1577.0436   85.0584
 1814  1577.7504   85.1431
 1815  1578.4578   85.0707
 1816  1579.1658   84.9829
 1817  1579.8744   85.0811
 1818  1580.5837   85.2149
 1819  1581.2935   85.1991
 1820  1582.0040   85.2073
 1821  1582.7151   85.0585
 1822  1583.4268   84.9579
 1823  1584.1391   85.0128
 1824  1584.8520   85.0687
 1825  1585.5656   85.1323
 1826  1586.2797   84.9668
 1827  1586.9945   85.1636
 1828  1587.7099   85.3153
 1829  1588.4260   85.2920
 1830  1589.1426   85.1913
 1831  1589.8599   85.1377
 1832  1590.5778   85.2847
 1833  1591.2963   85.4460
 1834  1592.0155   85.5414
 1835  1592.7352   85.4187
 1836  1593.4556   85.3352
 1837  1594.1767   85.6390
 1838  1594.8983   85.8076
 1839  1595.6206   85.6436
 1840  1596.3435   85.5620
 1841  1597.0671   85.7268
 1842  1597.7912   85.9703
 1843  1598.5160   86.1127
 1844  1599.2415   86.1343
 1845  1599.9675   86.1568
 1846  1600.6942   86.2037
 1847  1601.4216   85.5207
 1848  1602.1495   85.1988
 1849  1602.8781   86.1077
 1850  1603.6074   86.6699
 1851  1604.3373   86.6035
 1852  1605.0678   86.6324
 1853  1605.7989   86.7387
 1854  1606.5307   86.1679
 1855  1607.2632   85.5051
 1856  1607.9962   86.0979
 1857  1608.7300   86.8382
 1858  1609.4643   87.0151
 1859  1610.1993   87.1842
 1860  1610.9350   87.2961
 1861  1611.6713   87.3771
 1862  1612.4082   87.2556
 1863  1613.1458   87.2156
 1864  1613.8840   87.2712
 1865  2181.5213  160.8018
 1866  2182.4270  161.9131
 1867  2183.3335  161.2966
 1868  2184.2407  162.8444
 1869  2185.1486  162.7982
 1870  2186.0573  161.2990
 1871  2186.9668  162.6767
 1872  2187.8769  163.2979
 1873  2188.7879  162.4292
 1874  2189.6995  162.3678
 1875  2190.6120  163.6482
 1876  2191.5251  163.1963
 1877  2192.4390  164.0252
 1878  2193.3537  164.5868
 1879  2194.2691  163.9898
 1880  2195.1853  165.5715
 1881  2196.1022  164.6252
 1882  2197.0199  162.7378
 1883  2197.9383  164.8254
 1884  2198.8575  165.2613
 1885  2199.7775  163.1741
 1886  2200.6982  164.7410
 1887  2201.6196  165.7844
 1888  2202.5418  164.9173
 1889  2203.4648  165.3771
 1890  2204.3885  166.9428
 1891  2205.3130  165.9911
 1892  2206.2383  163.8322
 1893  2207.1643  165.8011
 1894  2208.0911  165.2294
 1895  2209.0186  161.9223
 1896  2209.9469  164.1055
 1897  2210.8760  166.8891
 1898  2211.8059  168.1664
 1899  2212.7365  169.2378
 1900  2213.6678  169.4830
 1901  2214.6000  169.6824
 1902  2215.5329  169.1128
 1903  2216.4666  169.2971
 1904  2217.4010  170.0182
 1905  2218.3363  168.4087
 1906  2219.2723  165.9086
 1907  2220.2090  169.3225
 1908  2221.1466  170.6144
 1909  2222.0849  170.0171
 1910  2223.0240  172.0662
 1911  2223.9639  170.2842
 1912  2224.9045  169.7449
 1913  2225.8460  171.8304
 1914  2226.7882  170.3096
 1915  2227.7312  169.9485
 1916  2228.6749  171.9830
 1917  2229.6195  171.3947
 1918  2230.5648  171.5541
 1919  2231.5109  171.3046
 1920  2232.4578  171.3343
 1921  2233.4055  171.0220
 1922  2234.3540  171.2958
 1923  2235.3033  171.7215
 1924  2236.2533  169.7344
 1925  2237.2042  170.6551
 1926  2238.1558  169.9182
 1927  2239.1082  168.1348
 1928  2240.0614  173.1269
 1929  2241.0154  174.1884
 1930  2241.9702  174.4254
 1931  2242.9258  175.1564
 1932  2243.8822  174.1372
 1933  2244.8393  175.0793
 1934  2245.7973  175.9465
 1935  2246.7561  174.9410
 1936  2247.7157  175.1016
 1937  2248.6760  176.3173
 1938  2249.6372  175.1447
 1939  2250.5992  176.6755
 1940  2251.5619  175.8971
 1941  2252.5255  175.5686
 1942  2253.4899  176.8929
 1943  2254.4550  176.1416
 1944  2255.4210  175.8836
 1945  2256.3878  176.1673
 1946  2257.3554  176.2797
 1947  2258.3238  177.5445
 1948  2259.2930  176.8175
 1949  2260.2630  177.0709
 1950  2261.2339  177.5173
 1951  2262.2055  176.6755
 1952  2263.1780  177.6560
 1953  2264.1512  176.9249
 1954  2265.1253  177.1567
 1955  2266.1002  176.4966
 1956  2267.0759  175.3916
 1957  2268.0524  174.2765
 1958  2269.0298  174.8475
 1959  2270.0079  179.5917
 1960  2270.9869  179.0645
 1961  2271.9667  179.8636
 1962  2272.9473  181.0637
 1963  2273.9288  181.2099
 1964  2274.9110  182.0293
 1965  2275.8941  181.7375
 1966  2276.8780  181.9467
 1967  2277.8627  182.0014
 1968  2278.8483  182.7798
 1969  2279.8347  182.3980
 1970  2280.8219  182.5824
 1971  2281.8099  182.4636
 1972  2282.7988  182.4515
 1973  2283.7885  182.2998
 1974  2284.7790  182.7040
 1975  2285.7704  182.6791
 1976  2286.7626  183.0223
 1977  2287.7556  183.1184
 1978  2288.7495  183.0829
 1979  2289.7442  183.1631
 1980  2290.7397  182.4770
 1981  2291.7361  182.2978
 1982  2292.7333  182.9164
 1983  2293.7314  183.4264
 1984  2294.7303  183.2728
 1985  2295.7300  182.3861
 1986  2296.7306  181.4619
 1987  2297.7320  179.3725
 1988  2298.7343  181.5452
 1989  2299.7374  185.4452
 1990  2300.7414  186.2606
 1991  2301.7462  187.1923
 1992  2302.7518  187.4793
 1993  2303.7583  187.5308
 1994  2304.7657  188.1582
 1995  2305.7739  188.1194
 1996  2306.7829  187.8032
 1997  2307.7928  186.9107
 1998  2308.8036  187.0879
 1999  2309.8152  188.0758
 2000  2310.8277  188.2671
 2001  2311.8410  188.4187
 2002  2312.8552  188.6193
 2003  2313.8702  188.6283
 2004  2314.8861  188.8240
 2005  2315.9028  188.9806
 2006  2316.9205  189.0060
 2007  2317.9389  189.0914
 2008  2318.9583  188.5140
 2009  2319.9785  188.5638
 2010  2320.9996  189.0950
 2011  2322.0215  189.1009
 2012  2323.0443  189.2148
 2013  2324.0680  188.8801
 2014  2325.0925  188.2890
 2015  2299.8253  185.9023
 2016  2300.7299  186.3130
 2017  2301.6353  187.0565
 2018  2302.5414  187.3990
 2019  2303.4482  187.6591
 2020  2304.3558  187.8729
 2021  2305.2641  187.8998
 2022  2306.1731  188.3274
 2023  2307.0829  187.7658
 2024  2307.9935  186.5097
 2025  2308.9047  187.2099
 2026  2309.8167  188.1220
 2027  2310.7295  188.2464
 2028  2311.6430  188.5205
 2029  2312.5573  188.7072
 2030  2313.4723  188.4644
 2031  2314.3880  188.4732
 2032  2315.3045  188.8919
 2033  2316.2217  189.0250
 2034  2317.1397  189.0914
 2035  2318.0585  189.1698
 2036  2318.9779  188.4916
 2037  2319.8982  188.4467
 2038  2320.8192  189.0848
 2039  2321.7409  189.1099
 2040  2322.6634  189.2075
 2041  2323.5867  189.0719
 2042  2324.5107  188.6430
 2043  2325.4355  188.0967
 2044  2326.3610  187.4132
 2045  2327.2873  185.0644
 2046  2328.2143  185.7756
 2047  2329.1421  191.0991
 2048  2330.0707  193.3995
 2049  2331.0000  193.4565
 2050  2331.9301  193.4545
 2051  2332.8609  193.6141
 2052  2333.7925  193.8957
 2053  2334.7249  194.1458
 2054  2335.6580  194.3355
 2055  2336.5920  194.5424
 2056  2337.5266  194.7464
 2057  2338.4621  194.8960
 2058  2339.3983  194.9842
 2059  2340.3353  195.0888
 2060  2341.2730  195.2914
 2061  2342.2115  195.4391
 2062  2343.1508  195.5064
 2063  2344.0909  195.6437
 2064  2345.0317  195.9423
 2065  2345.9733  196.0848
 2066  2346.9157  196.1466
 2067  2347.8589  196.3953
 2068  2348.8028  196.5684
 2069  2349.7475  196.7002
 2070  2350.6930  196.7525
 2071  2351.6393  196.6244
 2072  2352.5863  196.8842
 2073  2353.5342  197.2562
 2074  2354.4828  197.1788
 2075  2355.4322  197.3626
 2076  2356.3824  197.6893
 2077  2357.3333  197.7177
 2078  2358.2851  197.7679
 2079  2359.2376  197.9492
 2080  2360.1909  198.1184
 2081  2361.1450  198.1439
 2082  2362.0999  198.2735
 2083  2363.0556  198.6545
 2084  2364.0121  198.8912
 2085  2364.9694  199.0485
 2086  2365.9274  199.2835
 2087  2366.8863  199.5163
 2088  2367.8459  199.7624
 2089  2368.8064  200.0495
 2090  2369.7676  200.2209
 2091  2370.7296  200.3985
 2092  2371.6924  200.6772
 2093  2372.6561  200.9320
 2094  2373.6205  200.9803
 2095  2374.5857  200.6530
 2096  2375.5517  199.4637
 2097  2376.5185  198.3830
 2098  2377.4862  197.5546
 2099  2378.4546  199.1187
 2100  2379.4238  198.9593
 2101  2380.3938  197.8834
 2102  2381.3647  200.6667
 2103  2382.3363  202.1681
 2104  2383.3088  202.5728
 2105  2384.2820  202.3699
 2106  2385.2561  201.3557
 2107  2386.2310  202.3116
 2108  2387.2067  203.6957
 2109  2388.1832  203.8116
 2110  2389.1605  203.2148
 2111  2390.1386  203.0598
 2112  2391.1175  203.6749
 2113  2392.0973  204.0077
 2114  2393.0778  204.4929
 2115  2394.0592  204.8847
 2116  2395.0414  205.2842
 2117  2396.0244  205.4192
 2118  2397.0083  205.5172
 2119  2397.9929  205.7695
 2120  2398.9784  205.5996
 2121  2399.9647  205.8758
 2122  2400.9518  206.5865
 2123  2401.9398  206.8507
 2124  2402.9285  207.0968
 2125  2403.9181  207.3121
 2126  2404.9086  207.5790
 2127  2405.8998  207.8471
 2128  2406.8919  207.9781
 2129  2407.8848  208.0124
 2130  2408.8785  208.0671
 2131  2409.8731  208.0314
 2132  2410.8685  208.2538
 2133  2411.8647  208.8908
 2134  2412.8618  208.3587
 2135  2413.8597  208.5450
 2136  2414.8584  209.1614
 2137  2415.8580  209.0529
 2138  2416.8584  209.3856
 2139  2417.8596  209.7396
 2140  2418.8617  209.1136
 2141  2419.8646  209.8877
 2142  2420.8684  211.1536
 2143  2421.8730  211.3875
 2144  2422.8784  211.5676
 2145  2446.2250  214.2279
 2146  2447.2495  215.6523
 2147  2448.2748  215.7519
 2148  2449.3010  215.6654
 2149  2450.3280  215.9286
 2150  2451.3559  216.2949
 2151  2452.3846  216.8356
 2152  2453.4141  217.0404
 2153  2454.4445  217.2255
 2154  2455.4758  217.2039
 2155  2456.5079  216.5254
 2156  2457.5408  216.3572
 2157  2458.5746  216.9822
 2158  2459.6093  216.6485
 2159  2460.6448  217.1026
 2160  2461.6811  217.6856
 2161  2462.7183  215.4164
 2162  2463.7564  214.9011
 2163  2464.7953  217.1730
 2164  2465.8351  216.2164
 2165  2466.8757  209.4501
 2166  2467.9172  205.8968
 2167  2468.9595  212.4181
 2168  2470.0027  217.7214
 2169  2471.0468  218.8506
 2170  2472.0917  217.3595
 2171  2473.1375  217.5873
 2172  2474.1841  219.7973
 2173  2475.2316  219.6278
 2174  2476.2800  219.2484
 2175  2477.3292  219.8527
 2176  2478.3794  219.4054
 2177  2479.4303  219.4069
 2178  2480.4822  220.6508
 2179  2481.5349  221.1461
 2180  2482.5885  221.0148
 2181  2483.6429  220.5687
 2182  2484.6983  220.8135
 2183  2485.7545  220.9452
 2184  2486.8116  220.4820
 2185  2487.8695  220.7063
 2186  2488.9283  220.5963
 2187  2489.9880  219.5619
 2188  2491.0486  220.3274
 2189  2492.1101  221.8616
 2190  2493.1724  221.9953
 2191  2494.2357  222.0837
 2192  2495.2998  221.8840
 2193  2496.3648  221.8918
 2194  2497.4306  222.1713
 2195  2498.4974  221.3104
 2196  2499.5650  219.4224
 2197  2500.6336  219.1999
 2198  2501.7030  220.3732
 2199  2502.7733  221.2457
 2200  2503.8445  222.5572
 2201  2504.9166  222.4664
 2202  2505.9895  221.0005
 2203  2507.0634  219.9701
 2204  2508.1382  219.0196
 2205  2509.2138  220.0323
 2206  2510.2904  222.2869
 2207  2511.3678  221.4794
 2208  2512.4462  220.4367
 2209  2513.5254  222.7330
 2210  2514.6055  224.1585
 2211  2515.6866  222.6328
 2212  2516.7685  223.4885
 2213  2517.8514  224.0965
 2214  2518.9351  222.2850
 2215  2520.0198  223.2192
 2216  2521.1053  225.1355
 2217  2522.1918  225.6900
 2218  2523.2792  226.0331
 2219  2524.3674  226.0949
 2220  2525.4566  225.9159
 2221  2526.5467  226.1927
 2222  2527.6377  226.6113
 2223  2528.7296  226.7021
 2224  2529.8225  225.9535
 2225  2530.9162  225.2715
 2226  2532.0109  226.2115
 2227  2533.1064  227.0475
 2228  2534.2029  226.8176
 2229  2535.3003  226.7142
 2230  2536.3986  226.9685
 2231  2537.4979  227.3693
 2232  2538.5981  227.5983
 2233  2539.6991  227.5246
 2234  2540.8011  226.9081
 2235  2541.9041  226.5718
 2236  2543.0079  227.1141
 2237  2544.1127  227.4533
 2238  2545.2184  227.7342
 2239  2546.3251  227.9844
 2240  2547.4326  228.0802
 2241  2548.5411  228.1628
 2242  2549.6505  228.5531
 2243  2550.7609  228.8250
 2244  2551.8722  228.7175
 2245  2552.9844  228.7681
 2246  2554.0976  228.9937
 2247  2555.2117  227.6613
 2248  2556.3267  225.1411
 2249  2557.4427  224.8735
 2250  2558.5596  227.0327
 2251  2559.6774  227.7905
 2252  2560.7962  228.4985
 2253  2561.9159  229.1796
 2254  2563.0366  228.3471
 2255  2564.1582  227.8465
 2256  2565.2808  227.5257
 2257  2566.4043  227.7393
 2258  2567.5287  228.3661
 2259  2568.6541  228.8347
 2260  2569.7805  228.0746
 2261  2541.9295  226.4878
 2262  2542.9342  227.1323
 2263  2543.9396  227.3893
 2264  2544.9459  227.6560
 2265  2545.9530  227.9419
 2266  2546.9609  228.1081
 2267  2547.9697  228.0156
 2268  2548.9792  228.2846
 2269  2549.9896  228.7047
 2270  2551.0009  228.8383
 2271  2552.0129  228.6971
 2272  2553.0258  228.7579
 2273  2554.0395  229.0573
 2274  2555.0541  228.1695
 2275  2556.0694  225.4046
 2276  2557.0856  224.3596
 2277  2558.1027  226.4404
 2278  2559.1206  227.5430
 2279  2560.1393  227.8265
 2280  2561.1588  229.0509
 2281  2562.1792  229.0635
 2282  2563.2004  228.2806
 2283  2564.2225  227.7884
 2284  2565.2454  227.4978
 2285  2566.2691  227.6584
 2286  2567.2937  228.1755
 2287  2568.3191  228.8216
 2288  2569.3454  228.7340
 2289  2570.3725  227.1551
 2290  2571.4005  226.4634
 2291  2572.4293  227.8449
 2292  2573.4589  229.9217
 2293  2574.4894  229.8336
 2294  2575.5207  229.5066
 2295  2576.5529  229.5187
 2296  2577.5860  229.7910
 2297  2578.6199  230.5951
 2298  2579.6546  230.5947
 2299  2580.6902  229.6454
 2300  2581.7267  228.0553
 2301  2582.7640  228.5863
 2302  2583.8021  229.0557
 2303  2584.8411  226.9530
 2304  2585.8810  222.3431
 2305  2586.9218  225.1302
 2306  2587.9633  229.8827
 2307  2589.0058  230.7437
 2308  2590.0491  232.0847
 2309  2591.0933  231.9870
 2310  2592.1383  231.7797
 2311  2593.1842  232.0931
 2312  2594.2310  232.0605
 2313  2595.2786  232.0980
 2314  2596.3271  232.4367
 2315  2597.3765  232.5339
 2316  2598.4267  232.8472
 2317  2599.4778  233.0073
 2318  2600.5298  232.8990
 2319  2601.5827  232.8232
 2320  2602.6364  232.9624
 2321  2603.6910  233.0392
 2322  2604.7464  232.9510
 2323  2605.8028  232.9848
 2324  2606.8600  232.7991
 2325  2607.9181  232.9643
 2326  2608.9771  233.5679
 2327  2610.0369  233.7986
 2328  2611.0976  233.8603
 2329  2612.1593  233.9586
 2330  2613.2217  234.1151
 2331  2614.2851  234.2073
 2332  2615.3494  234.1929
 2333  2616.4145  234.2390
 2334  2617.4805  234.4279
 2335  2618.5475  234.4893
 2336  2619.6153  234.5349
 2337  2620.6839  234.5507
 2338  2621.7535  234.6635
 2339  2622.8240  234.8476
 2340  2623.8954  234.9535
 2341  2624.9676  235.1249
 2342  2626.0407  235.2975
 2343  2627.1148  235.3600
 2344  2628.1897  235.4222
 2345  2629.2655  235.4593
 2346  2630.3423  235.4625
 2347  2631.4199  235.5855
 2348  2632.4984  235.8471
 2349  2633.5778  236.0441
 2350  2634.6581  236.1078
 2351  2635.7394  236.2885
 2352  2636.8215  236.5181
 2353  2637.9045  236.7076
 2354  2638.9884  236.8699
 2355  2640.0733  237.0420
 2356  2641.1590  237.2268
 2357  2642.2457  237.3171
 2358  2643.3332  237.3351
 2359  2644.4217  237.5469
 2360  2645.5111  237.8542
 2361  2646.6014  238.0521
 2362  2647.6926  238.2616
 2363  2648.7847  238.4961
 2364  2649.8777  238.6969
 2365  2650.9717  238.8984
 2366  2652.0665  238.9703
 2367  2653.1623  238.9787
 2368  2654.2590  239.2791
 2369  2655.3566  239.6799
 2370  2656.4552  239.8644
 2371  2657.5546  239.7714
 2372  2658.6550  239.9029
 2373  2659.7563  240.4017
 2374  2660.8585  240.6592
 2375  2661.9617  240.8665
 2376  2663.0658  241.0261
 2377  2664.1708  241.0438
 2378  2665.2767  241.3516
 2379   649.3883   15.4919
 2380   682.2561   17.0213
 2381   682.5110   17.0345
 2382   682.7659   17.0478
 2383   683.0209   17.0610
 2384   683.2758   17.0742
 2385   683.5307   17.0875
 2386   683.7856   17.1008
 2387   684.0405   17.1141
 2388   684.2954   17.1274
 2389   684.5504   17.1407
 2390   684.8053   17.1540
 2391   685.0602   17.1674
 2392   685.3151   17.1808
 2393   685.5700   17.1941
 2394   685.8249   17.2075
 2395   686.0799   17.2209
 2396   686.3348   17.2343
 2397   686.5897   17.2477
 2398   686.8446   17.2612
 2399   687.0995   17.2746
 2400   687.3545   17.2881
 2401   728.7510   19.5094
 2402   727.7617   19.4573
 2403   782.2276   22.4026
 2404   782.5631   22.4218
 2405   782.8987   22.4411
 2406   783.2342   22.4604
 2407   783.5697   22.4797
 2408   783.9052   22.4990
 2409   784.2407   22.5183
 2410   784.5762   22.5377
 2411   784.9117   22.5570
 2412   785.2472   22.5764
 2413   785.5827   22.5958
 2414   785.9182   22.6152
 2415   786.2537   22.6346
 2416   786.5893   22.6541
 2417   786.9248   22.6735
 2418   787.2603   22.6930
 2419   787.5958   22.7125
 2420   787.9313   22.7320
 2421   788.2668   22.7515
 2422   788.6023   22.7710
 2423   788.9378   22.7905
 2424   852.8461   26.6789
 2425   851.1926   26.5754
 2426   904.1271   29.9834
 2427   904.4661   30.0061
 2428   904.8051   30.0288
 2429   905.1441   30.0515
 2430   905.4831   30.0743
 2431   905.8221   30.0970
 2432   906.1611   30.1198
 2433   906.5001   30.1425
 2434   906.8391   30.1653
 2435   907.1781   30.1881
 2436   907.5171   30.2110
 2437   907.8561   30.2338
 2438   908.1951   30.2567
 2439   908.5341   30.2795
 2440   908.8731   30.3024
 2441   909.2121   30.3253
 2442   909.5511   30.3482
 2443   909.8901   30.3711
 2444   910.2291   30.3941
 2445   910.5681   30.4170
 2446   910.9071   30.4400
 2447   974.7124   34.9698
 2448   973.4240   34.8751
 2449  1046.6593   40.3668
 2450  1047.1084   40.4011
 2451  1047.5574   40.4354
 2452  1048.0065   40.4696
 2453  1048.4556   40.5039
 2454  1048.9046   40.5382
 2455  1049.3537   40.5725
 2456  1049.8027   40.6068
 2457  1050.2518   40.6411
 2458  1050.7009   40.6755
 2459  1051.1499   40.7098
 2460  1051.5990   40.7441
 2461  1052.0481   40.7785
 2462  1052.4971   40.8128
 2463  1052.9462   40.8472
 2464  1053.3953   40.8816
 2465  1053.8443   40.9160
 2466  1054.2934   40.9504
 2467  1054.7424   40.9847
 2468  1055.1915   41.0191
 2469  1055.6406   41.0536
 2470  1137.1709   47.4337
 2471  1137.6925   47.4753
 2472  1138.2142   47.5170
 2473  1138.7359   47.5587
 2474  1139.2576   47.6004
 2475  1139.7793   47.6421
 2476  1140.3010   47.6838
 2477  1140.8227   47.7256
 2478  1141.3443   47.7673
 2479  1141.8660   47.8090
 2480  1142.3877   47.8508
 2481  1142.9094   47.8926
 2482  1143.4311   47.9343
 2483  1143.9528   47.9761
 2484  1144.4745   48.0179
 2485  1144.9961   48.0597
 2486  1145.5178   48.1015
 2487  1146.0395   48.1433
 2488  1146.5612   48.1852
 2489  1147.0829   48.2270
 2490  1147.6046   48.2688
 2491  1148.1263   48.3107
 2492  1148.6479   48.3525
 2493  1149.1696   48.3944
 2494  1149.6913   48.4363
 2495  1150.2130   48.4782
 2496  1150.7347   48.5201
 2497  1151.2564   48.5620
 2498  1151.7781   48.6039
 2499  1152.2998   48.6458
 2500  1152.8214   48.6877
 2501  1153.3431   48.7297
 2502  1153.8648   48.7716
 2503  1154.3865   48.8136
 2504  1154.9082   48.8555
 2505  1155.4299   48.8975
 2506  1155.9516   48.9395
 2507  1156.4732   48.9815
 2508  1156.9949   49.0235
 2509  1157.5166   49.0655
 2510  1158.0383   49.1075
 2511  1158.5600   49.1495
 2512  1159.0817   49.1915
 2513  1159.6034   49.2336
 2514  1160.1250   49.2756
 2515  1160.6467   49.3176
 2516  1161.1684   49.3597
 2517  1161.6901   49.4018
 2518  1162.2118   49.4438
 2519  1162.7335   49.4859
 2520  1163.2552   49.5280
 2521  1163.7768   49.5701
 2522  1164.2985   49.6122
 2523  1164.8202   49.6543
 2524  1165.3419   49.6964
 2525  1165.8636   49.7385
 2526  1166.3853   49.7806
 2527  1166.9070   49.8228
 2528  1167.4286   49.8649
 2529  1167.9503   49.9071
 2530  1168.4720   49.9492
 2531  1168.9937   49.9914
 2532  1169.5154   50.0336
 2533  1170.0371   50.0757
 2534  1170.5588   50.1179
 2535  1171.0804   50.1601
 2536  1171.6021   50.2023
 2537  1172.1238   50.2445
 2538  1172.6455   50.2867
 2539  1173.1672   50.3289
 2540  1173.6889   50.3712
 2541  1174.2106   50.4134
 2542  1174.7323   50.4556
 2543  1175.2539   50.4979
 2544  1175.7756   50.5401
 2545  1176.2973   50.5824
 2546  1176.8190   50.6246
 2547  1177.3407   50.6669
 2548  1177.8624   50.7092
 2549  1178.3841   50.7515
 2550  1178.9057   50.7937
 2551  1179.4274   50.8360
 2552  1179.9491   50.8783
 2553  1180.4708   50.9206
 2554  1180.9925   50.9629
 2555  1181.5142   51.0053
 2556  1182.0359   51.0476
 2557  1182.5575   51.0899
 2558  1183.0792   51.1322
 2559  1183.6009   51.1746
 2560  1184.1226   51.2169
 2561  1184.6443   51.2593
 2562  1185.1660   51.3016
 2563  1185.6877   51.3440
 2564  1186.2093   51.3864
 2565  1186.7310   51.4287
 2566  1187.2527   51.4711
 2567  1187.7744   51.5135
 2568  1188.2961   51.5559
 2569  1188.8178   51.5983
 2570  1189.3395   51.6407
 2571  1189.8611   51.6831
 2572  1190.3828   51.7255
 2573  1190.9045   51.7679
 2574  1191.4262   51.8103
 2575  1191.9479   51.8527
 2576  1192.4696   51.8952
 2577  1192.9913   51.9376
 2578  1193.5130   51.9801
 2579  1194.0346   52.0225
 2580  1194.5563   52.0649
 2581  1195.0780   52.1074
 2582  1195.5997   52.1499
 2583  1196.1214   52.1923
 2584  1196.6431   52.2348
 2585  1197.1648   52.2773
 2586  1197.6864   52.3197
 2587  1198.2081   52.3622
 2588  1198.7298   52.4047
 2589  1199.2515   52.4472
 2590  1199.7732   52.4897
 2591  1200.2949   52.5322
 2592  1200.8166   52.5747
 2593  1201.3382   52.6172
 2594  1201.8599   52.6597
 2595  1202.3816   52.7022
 2596  1202.9033   52.7448
 2597  1203.4250   52.7873
 2598  1203.9467   52.8298
 2599  1204.4684   52.8723
 2600  1204.9900   52.9149
 2601  1205.5117   52.9574
 2602  1206.0334   53.0000
 2603  1206.5551   53.0425
 2604  1207.0768   53.0851
 2605  1207.5985   53.1276
 2606  1208.1202   53.1702
 2607  1208.6418   53.2127
 2608  1209.1635   53.2553
 2609  1209.6852   53.2979
 2610  1210.2069   53.3404
 2611  1210.7286   53.3830
 2612  1211.2503   53.4256
 2613  1211.7720   53.4682
 2614  1212.2936   53.5108
 2615  1212.8153   53.5534
 2616  1213.3370   53.5960
 2617  1213.8587   53.6386
 2618  1214.3804   53.6812
 2619  1214.9021   53.7238
 2620  1215.4238   53.7664
 2621  1215.9455   53.8090
 2622  1216.4671   53.8516
 2623  1273.1396   58.4903
 2624  1273.6742   58.5341
 2625  1274.2087   58.5780
 2626  1274.7433   58.6218
 2627  1275.2778   58.6656
 2628  1275.8123   58.7094
 2629  1276.3469   58.7532
 2630  1276.8814   58.7971
 2631  1277.4159   58.8409
 2632  1277.9505   58.8847
 2633  1278.4850   58.9286
 2634  1279.0196   58.9724
 2635  1279.5541   59.0162
 2636  1280.0886   59.0601
 2637  1280.6232   59.1039
 2638  1281.1577   59.1478
 2639  1281.6922   59.1916
 2640  1282.2268   59.2355
 2641  1282.7613   59.2793
 2642  1283.2958   59.3232
 2643  1283.8304   59.3670
 2644  1339.4912   63.9552
 2645  1337.6682   63.8041
 2646  1443.6651   72.7657
 2647  1444.2382   72.8153
 2648  1444.8112   72.8648
 2649  1445.3842   72.9144
 2650  1445.9572   72.9639
 2651  1446.5303   73.0135
 2652  1447.1033   73.0631
 2653  1447.6763   73.1127
 2654  1448.2493   73.1622
 2655  1448.8224   73.2118
 2656  1449.3954   73.2614
 2657  1449.9684   73.3110
 2658  1450.5415   73.3606
 2659  1451.1145   73.4102
 2660  1451.6875   73.4598
 2661  1452.2605   73.5094
 2662  1452.8336   73.5590
 2663  1453.4066   73.6087
 2664  1453.9796   73.6583
 2665  1454.5526   73.7079
 2666  1455.1257   73.7575
 2667  1455.6987   73.8071
 2668  1456.2717   73.8567
 2669  1456.8448   73.9063
 2670  1457.4178   73.9560
 2671  1457.9908   74.0056
 2672  1458.5638   74.0552
 2673  1459.1369   74.1048
 2674  1459.7099   74.1544
 2675  1527.6650   79.9160
 2676  1528.3056   79.9679
 2677  1528.9461   80.0176
 2678  1529.5867   80.0753
 2679  1530.2272   80.1284
 2680  1530.8678   80.1743
 2681  1531.5084   80.2258
 2682  1532.1489   80.2659
 2683  1532.7895   80.2880
 2684  1533.4300   80.3193
 2685  1534.0706   80.3610
 2686  1534.7112   80.4056
 2687  1535.3517   80.4370
 2688  1535.9923   80.4613
 2689  1536.6328   80.4755
 2690  1537.2734   80.4684
 2691  1537.9139   80.4766
 2692  1538.5545   80.5109
 2693  1539.1951   80.5529
 2694  1539.8356   80.5942
 2695  1540.4762   80.6508
 2696  1614.6223   87.4526
 2697  2165.8952  156.3720
 2698  2166.7633  156.7123
 2699  2167.6314  159.4828
 2700  2168.4996  159.9258
 2701  2169.3677  157.4959
 2702  2170.2358  158.5683
 2703  2171.1039  160.4155
 2704  2171.9720  158.6956
 2705  2172.8401  157.8119
 2706  2173.7082  158.8238
 2707  2174.5763  160.7737
 2708  2175.4445  159.3188
 2709  2176.3126  157.7819
 2710  2177.1807  160.4367
 2711  2178.0488  160.6603
 2712  2178.9169  158.3250
 2713  2179.7850  158.5993
 2714  2180.6531  159.5208
 2715  2326.1171  187.6056
 2716  2298.9207  182.1241
 2717  2423.8518  211.6513
 2718  2424.8246  211.7015
 2719  2425.7973  212.0068
 2720  2426.7701  212.3412
 2721  2427.7428  212.5763
 2722  2428.7156  212.8395
 2723  2429.6883  213.0640
 2724  2430.6610  213.2267
 2725  2431.6338  212.0861
 2726  2432.6065  211.3322
 2727  2433.5793  212.8121
 2728  2434.5520  214.0024
 2729  2435.5248  214.2860
 2730  2436.4975  214.5137
 2731  2437.4703  214.0863
 2732  2438.4430  214.1333
 2733  2439.4158  214.9357
 2734  2440.3885  215.1584
 2735  2441.3613  215.3086
 2736  2442.3340  215.4294
 2737  2443.3068  215.4001
 2738  2444.2795  215.4975
 2739  2445.2523  214.4797
 2740  2570.9068  226.6613
 2741  2540.9249  226.8107
 2742  2666.3699  241.6081
 2743  2667.4630  241.7557
 2744  2668.5562  241.1654
 2745  2669.6493  239.8032
 2746  2670.7425  240.6864
 2747  2671.8356  240.9374
 2748  2672.9288  238.8713
 2749  2674.0220  239.1986
 2750  2675.1151  241.5861
 2751  2676.2083  242.7247
 2752  2677.3014  243.3480
 2753  2678.3946  244.1043
 2754  2679.4877  244.4259
 2755  2680.5809  244.4813
 2756  2681.6740  244.5948
 2757  2682.7672  244.8730
 2758  2683.8603  244.7813
 2759  2684.9535  244.4049
 2760  2686.0466  244.1624
 2761  2687.1398  244.6597
 2762  2688.2330  244.9479
 2763  2689.3261  244.9250
 2764  2690.4193  244.7847
 2765  2691.5124  243.6693
 2766  2692.6056  244.5070
 2767  2693.6987  246.1365
 2768  2694.7919  246.2229
 2769  2695.8850  245.8646
 2770  2696.9782  246.0331
 2771  2698.0713  246.4131
 2772  2699.1645  246.8868
 2773  2700.2577  247.3726
 2774  2701.3508  247.4688
 2775  2702.4440  246.3624
 2776  2703.5371  242.6679
 2777  2704.6303  243.2627
 2778  2705.7234  247.1784
 2779  2706.8166  248.2059
 2780  2707.9097  248.4563
 2781  2709.0029  248.7356
 2782  2710.0960  249.0192
 2783  2711.1892  249.1495
 2784  2712.2823  249.1479
 2785  2713.3755  248.9976
 2786  2714.4687  246.3335
 2787  2715.5618  244.3732
 2788  2716.6550  246.5682
 2789  2717.7481  245.5929
 2790  2718.8413  245.0198
 2791  2719.9344  248.0461
 2792  2721.0276  250.0543
 2793  2722.1207  250.0873
 2794  2723.2139  248.7269
 2795  2724.3070  248.7842
 2796  2725.4002  249.8517
 2797  2726.4933  249.8554
 2798  2727.5865  250.3116
 2799  2728.6797  250.6659
 2800  2729.7728  250.7732
 2801  2730.8660  250.9213
 2802  2731.9591  250.4835
 2803  2733.0523  249.4869
 2804  2734.1454  250.4177
 2805  2735.2386  251.7695
 2806  2736.3317  251.9316
 2807  2737.4249  251.9930
 2808  2738.5180  252.0991
 2809  2739.6112  252.2093
 2810  2740.7043  252.1505
 2811  2741.7975  252.3185
 2812  2742.8907  252.1174
 2813  2743.9838  252.0112
 2814  2745.0770  252.0451
 2815  2746.1701  250.0917
 2816  2747.2633  250.3238
 2817  2748.3564  252.3430
 2818  2749.4496  252.9209
 2819  2750.5427  253.3091
 2820  2751.6359  253.6394
 2821  2752.7290  253.8793
 2822  2753.8222  253.4606
 2823  2754.9154  253.6045
 2824  2756.0085  254.4231
 2825  2757.1017  254.6530
 2826  2758.1948  254.5474
 2827  2759.2880  254.2632
 2828  2760.3811  254.5781
 2829  2761.4743  255.1214
 2830  2762.5674  255.3001
 2831  2763.6606  255.3913
 2832  2764.7537  255.5359
 2833  2765.8469  255.5976
 2834  2766.9400  255.6941
